Time (s),W,X,Y,Z
0.015926361,0.06537166,0.3701581,-0.9100255,0.1648963
0.048205853,0.06584026,0.3725716,-0.9090422,0.1646977
0.080485821,0.06624718,0.3749259,-0.9080811,0.1644938
0.115244865,0.0666614,0.3773926,-0.9070815,0.1642005
0.147524834,0.0670654,0.3797258,-0.9061362,0.1638763
0.182287216,0.06746394,0.3821816,-0.9051418,0.1634985
0.214567184,0.06778843,0.3843966,-0.9042446,0.1631368
0.249330521,0.06811605,0.3866153,-0.9033226,0.1628642
0.281610012,0.06845686,0.3886467,-0.9024445,0.1627549
0.313886166,0.06877256,0.3907033,-0.9015564,0.1626193
0.348648548,0.06911804,0.3930058,-0.9005606,0.1624426
0.380928516,0.0694228,0.3952722,-0.8995842,0.1622232
0.415691376,0.069842,0.3978301,-0.8984675,0.1619788
0.447971344,0.07026627,0.3997814,-0.8976084,0.1617537
0.482733726,0.07070562,0.4017586,-0.8967261,0.1615578
0.515009880,0.07103969,0.4035055,-0.8959513,0.1613553
0.547289371,0.07134923,0.4054199,-0.8951038,0.1611239
0.582052708,0.07168098,0.4074698,-0.8941801,0.1609342
0.614332676,0.07193536,0.4093883,-0.893304,0.1608178
0.649095058,0.07218114,0.4114941,-0.8923417,0.1606743
0.681375027,0.07239258,0.4132782,-0.8915429,0.1604352
0.713650703,0.07268129,0.4149368,-0.8907979,0.1601609
0.748414040,0.07299863,0.4167221,-0.8899797,0.1599304
0.780693531,0.07328189,0.4182596,-0.8892698,0.1597358
0.815456867,0.07356121,0.4198447,-0.8885328,0.1595507
0.847736835,0.07383278,0.4213589,-0.8878129,0.1594414
0.882499218,0.07417966,0.4231035,-0.886977,0.1593115
0.914774895,0.07454644,0.4247439,-0.8861838,0.1591901
0.947054863,0.07483674,0.4263501,-0.8854094,0.1590688
0.981818199,0.07508464,0.4279983,-0.884618,0.1589289
1.014098167,0.07528853,0.4294966,-0.8839015,0.1587769
1.048860550,0.075505,0.4309191,-0.8832353,0.1585274
1.081140518,0.07567441,0.4322159,-0.8826191,0.1583473
1.115899563,0.07587888,0.4336521,-0.8819307,0.1581587
1.148179054,0.07614706,0.4350582,-0.8812452,0.1579892
1.180459023,0.07643793,0.436545,-0.8805031,0.1578851
1.215221405,0.07675005,0.4381597,-0.8796907,0.157789
1.247501373,0.07703831,0.4396597,-0.8789319,0.1577052
1.282264710,0.07728496,0.4411975,-0.878157,0.1576062
1.314540386,0.07752962,0.4425848,-0.8774641,0.1574556
1.349303722,0.07787212,0.4440005,-0.8767472,0.1572945
1.381583691,0.07825761,0.445215,-0.8761256,0.1571336
1.413863182,0.07865167,0.4463128,-0.8755519,0.1570196
1.448626041,0.07910707,0.4473779,-0.8749797,0.1569503
1.480905533,0.07968595,0.4484719,-0.8743837,0.1568561
1.515664577,0.08023547,0.4496893,-0.873734,0.1567107
1.547944546,0.08062255,0.4508068,-0.8731439,0.1565911
1.582706928,0.080727,0.4520826,-0.872523,0.1563192
1.614986896,0.08077198,0.4534213,-0.8719422,0.1556578
1.647266865,0.08108109,0.4546775,-0.8714379,0.1546537
1.682030201,0.08160032,0.4559778,-0.8709004,0.1535765
1.714305878,0.08220436,0.4568077,-0.8705728,0.1526434
1.749069214,0.08276149,0.457663,-0.8701808,0.1520136
1.781348705,0.08311918,0.4585173,-0.8697517,0.1516997
1.813628674,0.08314811,0.4592898,-0.8693281,0.1517744
1.848391056,0.08283661,0.4602554,-0.8687997,0.1520456
1.880671024,0.08234879,0.461476,-0.868135,0.1524065
1.915430069,0.08194466,0.4627931,-0.8674087,0.1527658
1.947710037,0.08196655,0.4638551,-0.8667946,0.1530193
1.982472420,0.08245274,0.4647992,-0.8662137,0.1531827
2.014752388,0.08308545,0.4655639,-0.8657298,0.1532541
2.047032356,0.08384384,0.4662381,-0.865294,0.1532526
2.081795216,0.08437992,0.467039,-0.8648853,0.1528258
2.114071369,0.08447582,0.4678994,-0.864556,0.1520018
2.148834229,0.08433164,0.4687582,-0.8643505,0.1505981
2.181114197,0.08389273,0.4695645,-0.864156,0.1494432
2.215876579,0.08333583,0.4702687,-0.8639125,0.1489483
2.248156548,0.08308823,0.471285,-0.8633339,0.1492285
2.280436516,0.08365911,0.472092,-0.8628244,0.1493048
2.315195561,0.08436558,0.4727117,-0.8624123,0.1493283
2.347475529,0.08441213,0.4733728,-0.8621045,0.1489851
2.382237911,0.08438832,0.4740016,-0.8618389,0.1485344
2.414517880,0.08448781,0.4743668,-0.8615521,0.1489757
2.449280739,0.0845717,0.4750327,-0.8609717,0.1501562
2.481560707,0.08482536,0.4757997,-0.8604381,0.1506426
2.513840675,0.08511332,0.4766313,-0.859997,0.1503705
2.548599720,0.08520134,0.4774071,-0.8597248,0.1494136
2.580879688,0.08485725,0.4780407,-0.859635,0.1480935
2.615642071,0.08439028,0.4788765,-0.8594693,0.1466142
2.647922039,0.084093,0.4793774,-0.8593808,0.1456637
2.682684898,0.08418807,0.4797123,-0.8592018,0.1455624
2.714964867,0.08479157,0.4800215,-0.8588055,0.1465281
2.747240543,0.08564603,0.4804499,-0.8582357,0.1479587
2.782003879,0.08654618,0.4809724,-0.8576017,0.1494061
2.814283848,0.08718426,0.4814413,-0.8571445,0.150147
2.849046230,0.08750083,0.4821924,-0.8566511,0.1503689
2.881326199,0.08753353,0.4830196,-0.8562239,0.150128
2.913606167,0.08740462,0.4837279,-0.8559645,0.1493993
2.948365211,0.08714604,0.4842784,-0.855857,0.1483795
2.980644703,0.08690996,0.4846705,-0.8558331,0.1473718
3.015407562,0.08675737,0.4851758,-0.8557194,0.1464568
3.047687054,0.08672573,0.4856389,-0.8555452,0.1459574
3.082450390,0.08669624,0.4861284,-0.8552802,0.1458994
3.114730358,0.0868303,0.4865267,-0.8549832,0.1462322
3.147006035,0.08713733,0.4869715,-0.8546188,0.1466981
3.181769371,0.08749274,0.4874529,-0.8542483,0.1470442
3.214049339,0.0877471,0.4878991,-0.8539367,0.1472239
3.248811722,0.08791024,0.4882811,-0.8536905,0.147287
3.281091690,0.088013,0.4886615,-0.8534708,0.1472378
3.315854549,0.08799754,0.489184,-0.8531758,0.1472217
3.348130703,0.08785031,0.489592,-0.8529598,0.1472053
3.380410194,0.08777456,0.4900065,-0.8527507,0.1470819
3.415173531,0.087793,0.4904719,-0.8525158,0.1468813
3.447453499,0.08790413,0.4909055,-0.8522799,0.1467353
3.482215881,0.08807578,0.4911424,-0.8521441,0.1466283
3.514495849,0.08817032,0.491293,-0.8520575,0.14657
3.549254894,0.0883194,0.4917345,-0.8517959,0.1465211
3.581534862,0.08841328,0.4920247,-0.8516157,0.146537
3.613814354,0.08851982,0.4922702,-0.8514522,0.1465984
3.648577690,0.08860989,0.4925166,-0.8512905,0.146656
3.680857658,0.08861395,0.4928223,-0.851117,0.1466331
3.715620041,0.08858513,0.4931594,-0.8509576,0.1464418
3.747895718,0.08854219,0.4934687,-0.8508192,0.1462302
3.782659054,0.08857094,0.4937608,-0.8506528,0.1461949
3.814939022,0.0887187,0.4940229,-0.8504661,0.146306
3.847218513,0.0889453,0.4944267,-0.8501993,0.1463545
3.881981850,0.08897974,0.4947604,-0.8499947,0.146395
3.914261818,0.08884639,0.4950501,-0.8498432,0.146376
3.949020386,0.08866655,0.4953107,-0.8497327,0.1462449
3.981299877,0.08867312,0.4956685,-0.8495589,0.1460381
4.013579845,0.08876664,0.4960687,-0.8493391,0.1459019
4.048343182,0.08900987,0.4964097,-0.8491227,0.1458528
4.080622673,0.08924259,0.4965715,-0.8489919,0.1459215
4.115386009,0.08944047,0.4967238,-0.8488652,0.146019
4.147661686,0.08948416,0.4968925,-0.8487425,0.1461305
4.182424545,0.08945973,0.4972298,-0.8485394,0.1461779
4.214704037,0.08946719,0.4975969,-0.8483412,0.1460756
4.246984005,0.08945094,0.4980844,-0.8480646,0.1460287
4.281747341,0.08935706,0.4982864,-0.847968,0.1459586
4.314026833,0.08927841,0.4984974,-0.8478746,0.1458286
4.348786354,0.08928764,0.4987195,-0.8477584,0.1457396
4.381065846,0.08940028,0.4989166,-0.8476245,0.145774
4.415828705,0.08956543,0.499122,-0.8474712,0.1458613
4.448108196,0.08967567,0.499359,-0.8473077,0.1459318
4.480388164,0.08969136,0.4994879,-0.8472355,0.1458999
4.515151501,0.08977062,0.4996996,-0.8471257,0.1457649
4.547427177,0.0898448,0.4999592,-0.8469628,0.1457748
4.582190514,0.08990033,0.5001644,-0.8468274,0.1458241
4.614470005,0.08994171,0.5002593,-0.8467603,0.1458625
4.649232864,0.08991235,0.5003432,-0.8467188,0.1458329
4.681513309,0.08988894,0.5005063,-0.8466378,0.1457585
4.713793278,0.08989181,0.5005501,-0.8466223,0.1456964
4.748551369,0.08992784,0.5005849,-0.8465995,0.1456873
4.780831337,0.08999804,0.5006467,-0.8465621,0.1456482
4.815594673,0.09006142,0.5008264,-0.8464525,0.1456283
4.847874641,0.09009514,0.5011021,-0.846272,0.1457081
4.882637501,0.09015352,0.501434,-0.846059,0.1457678
4.914917469,0.09021928,0.50165,-0.8459199,0.1457907
4.947193146,0.09023435,0.501845,-0.8458096,0.1457505
4.981956005,0.0903036,0.5020152,-0.8457128,0.1456829
5.014235497,0.09039566,0.5021297,-0.8456372,0.1456698
5.048998833,0.09046759,0.5022611,-0.8455513,0.145671
5.081278801,0.09051909,0.5023828,-0.8454777,0.1456469
5.113558292,0.09057187,0.5024322,-0.8454178,0.1457909
5.148317814,0.09050331,0.5026455,-0.8452387,0.1461366
5.180597305,0.0904977,0.5029369,-0.845037,0.1463033
5.215360165,0.09048681,0.5031706,-0.8448882,0.1463662
5.247639656,0.0904182,0.5034863,-0.8447033,0.1463903
5.282402992,0.09050098,0.5038224,-0.8445172,0.1462564
5.314682961,0.09074009,0.5040917,-0.8443649,0.1460594
5.346958637,0.09105735,0.5041224,-0.8443516,0.1458324
5.381721974,0.09135997,0.503974,-0.8444351,0.1456726
5.414001465,0.09164249,0.5037504,-0.8445597,0.1455468
5.448764801,0.09170496,0.5037284,-0.8445075,0.1458858
5.481044769,0.09145622,0.5039903,-0.8443062,0.1463018
5.515807152,0.09107531,0.5043684,-0.8440828,0.1465261
5.548082828,0.09039525,0.5049223,-0.843716,0.1471496
5.580362797,0.0898824,0.5051641,-0.8436052,0.14727
5.615126133,0.08965696,0.5054507,-0.8435104,0.1469663
5.647405624,0.08960051,0.5054293,-0.8435971,0.1465767
5.682168960,0.08987998,0.5053324,-0.8436998,0.1461479
5.714448929,0.08989192,0.5053648,-0.8436223,0.1464755
5.749207497,0.08936691,0.5054921,-0.8434435,0.1473844
5.781486988,0.08924191,0.5055156,-0.8434004,0.1476262
5.813767910,0.08923137,0.5054762,-0.8432786,0.14846
5.848530292,0.08918093,0.5057671,-0.8428229,0.1500786
5.880809784,0.08964915,0.5056638,-0.8426135,0.1513193
5.915573120,0.09030386,0.5055571,-0.8422362,0.1533727
5.947848797,0.09171116,0.5056394,-0.8417851,0.154736
5.982612133,0.09324064,0.5056396,-0.8415797,0.154939
6.014892101,0.0946646,0.5057853,-0.8415132,0.1539576
6.047172070,0.09655874,0.5057876,-0.8416352,0.1520958
6.081934452,0.09876642,0.5057153,-0.8418421,0.1497564
6.114214420,0.1020926,0.5051178,-0.8421801,0.1476256
6.148973465,0.1065761,0.5042824,-0.8423359,0.1464194
6.181253433,0.1114172,0.5031688,-0.8425436,0.1454486
6.213532925,0.1165671,0.501699,-0.8427234,0.1454477
6.248296261,0.1218845,0.5001271,-0.8429136,0.1454006
6.280576229,0.1261654,0.4985222,-0.8431953,0.1456272
6.315339089,0.130277,0.4967302,-0.8436673,0.1453967
6.347615242,0.1327385,0.495496,-0.844206,0.14425
6.382377625,0.1340238,0.4945747,-0.8449733,0.1417085
6.414657593,0.1339114,0.4937436,-0.8459839,0.13865
6.446937084,0.1337508,0.4926145,-0.8471571,0.1356257
6.481700420,0.1338198,0.4911352,-0.8484806,0.1326153
6.513980389,0.1342653,0.4893976,-0.8498333,0.1298996
6.548739433,0.1355605,0.4869151,-0.8511229,0.1294401
6.581019401,0.1371384,0.4847282,-0.8521078,0.1295052
6.615782261,0.1401122,0.48203,-0.8530569,0.1301433
6.648062229,0.1424681,0.479467,-0.853889,0.1315883
6.680342197,0.1441088,0.4777722,-0.8546478,0.1310388
6.715104580,0.1462053,0.4758011,-0.8557351,0.1287727
6.747380257,0.1466698,0.4743332,-0.8569445,0.1255782
6.782143593,0.1481368,0.472318,-0.8584472,0.1211084
6.814423561,0.14871,0.4703425,-0.859971,0.1172214
6.849186420,0.1489655,0.4684127,-0.8617236,0.1116201
6.881466389,0.1497432,0.4661602,-0.86352,0.105983
6.913746357,0.1501471,0.4636438,-0.8653495,0.1014307
6.948505402,0.1509168,0.4607092,-0.8674416,0.09562314
6.980785370,0.151613,0.4573676,-0.8696867,0.0900062
7.015547752,0.1513283,0.4544831,-0.8717571,0.08492421
7.047827721,0.1518175,0.4511293,-0.8737734,0.08112701
7.082590580,0.1510045,0.4478923,-0.8759217,0.07732267
7.114870548,0.1494959,0.4453671,-0.8778133,0.07328575
7.147146225,0.1469468,0.4427772,-0.879945,0.06840516
7.181909561,0.1423866,0.4405197,-0.8821225,0.06446771
7.214189529,0.1377069,0.4383325,-0.8841739,0.06136297
7.248952389,0.1327452,0.4358614,-0.8862864,0.05939355
7.281232357,0.129299,0.4336258,-0.8878819,0.05952965
7.313512325,0.1255846,0.43062,-0.8897386,0.06154423
7.348271370,0.1236654,0.4258429,-0.8924155,0.05989275
7.380551338,0.1230308,0.4222504,-0.8945524,0.05451282
7.415313721,0.1278181,0.4219578,-0.8942403,0.05075737
7.447593689,0.1351018,0.4253021,-0.8916138,0.05018084
7.482357025,0.144866,0.431865,-0.8869174,0.05011578
7.514636516,0.1570154,0.4417677,-0.879934,0.05031203
7.546912670,0.170548,0.4543301,-0.8709946,0.04993795
7.581675529,0.1857016,0.4706659,-0.8593568,0.04606695
7.613955498,0.1995876,0.4878266,-0.8468904,0.03992637
7.648718834,0.2133739,0.5086254,-0.8315401,0.03066538
7.680998325,0.2247109,0.5292844,-0.8158056,0.02125926
7.715761185,0.2383497,0.5532496,-0.7959961,0.01104557
7.748036861,0.2518094,0.575768,-0.7756898,0.004032223
7.780317306,0.2645477,0.5975507,-0.7546925,-0.003797652
7.847359657,0.2926079,0.6396041,-0.7082445,-0.01744855
7.882122993,0.3059124,0.6625229,-0.6808427,-0.02370272
7.914402485,0.3173439,0.6798103,-0.6578997,-0.03076288
7.949162006,0.3263215,0.6931965,-0.638367,-0.04591233
7.981441498,0.3319099,0.7012886,-0.6247057,-0.0663361
8.013721466,0.3402815,0.7046958,-0.6132368,-0.09044734
8.048484802,0.349452,0.7017694,-0.6073474,-0.1147171
8.080764294,0.3633455,0.6930846,-0.6053582,-0.1333526
8.115527153,0.3770959,0.6840457,-0.6015956,-0.1568132
8.147802830,0.382689,0.6782579,-0.5966622,-0.1847627
8.182566166,0.3920016,0.6659892,-0.5942284,-0.2152056
8.214845657,0.4133654,0.6450346,-0.5963832,-0.2324093
8.247125626,0.4338401,0.6195608,-0.6026193,-0.2477995
8.281888962,0.451618,0.5882986,-0.6154797,-0.2603041
8.314168930,0.4617922,0.5619984,-0.628045,-0.2703568
8.348927975,0.461603,0.5379637,-0.6387125,-0.2935843
8.381207943,0.4537074,0.526565,-0.6420807,-0.3181806
8.413487434,0.4433864,0.5214794,-0.6378049,-0.3482817
8.448250770,0.4340939,0.5156761,-0.6333861,-0.37562
8.480530739,0.4315435,0.5024031,-0.6349604,-0.3934646
8.515293121,0.4346469,0.4794873,-0.6437832,-0.4041596
8.547569752,0.4416045,0.4534629,-0.6565416,-0.4061251
8.582332134,0.4519142,0.4234414,-0.6644688,-0.4142219
8.614612102,0.4647744,0.3933967,-0.6617538,-0.4335127
8.646891594,0.482216,0.3670807,-0.6497146,-0.455212
8.681654930,0.5010045,0.3510059,-0.6335073,-0.4701972
8.713934898,0.5157549,0.3426985,-0.6184539,-0.4803093
8.748693943,0.5292649,0.335603,-0.6063855,-0.4859768
8.780973911,0.5334354,0.332905,-0.6166758,-0.4700634
8.815736771,0.5452904,0.3143868,-0.6289876,-0.4525723
8.848016739,0.5462888,0.3045348,-0.6385993,-0.4445735
8.880296707,0.5434863,0.3039511,-0.6369925,-0.4506713
8.915059566,0.5430416,0.3081713,-0.6290538,-0.4594074
8.947335720,0.5443047,0.3092445,-0.6253518,-0.4622369
8.982098103,0.550807,0.3049988,-0.6249904,-0.4578232
9.014378071,0.5584962,0.2994341,-0.6274445,-0.448734
9.049140930,0.5641468,0.2951666,-0.631022,-0.4393794
9.081420898,0.567144,0.2956693,-0.6318133,-0.4340127
9.113700867,0.5691794,0.2964804,-0.6321972,-0.4302193
9.148459911,0.5706578,0.2948364,-0.6346504,-0.4257556
9.180739880,0.5712463,0.2932105,-0.6361674,-0.4238206
9.215502739,0.5729307,0.2922185,-0.6364449,-0.4218108
9.247782707,0.5752774,0.2850962,-0.6423611,-0.4144587
9.282546043,0.5755308,0.2769383,-0.6481911,-0.410543
9.314826012,0.5729856,0.2767952,-0.6484715,-0.4137443
9.347101688,0.5711066,0.2754243,-0.650749,-0.4136811
9.381865025,0.569476,0.2714373,-0.6547096,-0.4123128
9.414144516,0.5677245,0.2698794,-0.6559936,-0.4137076
9.448906898,0.5673179,0.2671953,-0.6586642,-0.4117598
9.481186867,0.5668547,0.2634432,-0.6611626,-0.4108104
9.513467312,0.5658259,0.2616843,-0.6626689,-0.4109258
9.548225880,0.5657462,0.2567307,-0.6678476,-0.4057435
9.580505848,0.5637898,0.2546994,-0.6706046,-0.4051992
9.615269184,0.5614204,0.2566003,-0.6706324,-0.4072385
9.647548675,0.5582613,0.2545333,-0.6746061,-0.4063145
9.682312012,0.5559906,0.2531833,-0.6777055,-0.4051121
9.714591980,0.5565734,0.2548891,-0.6782639,-0.4022977
9.746867657,0.5586109,0.2508254,-0.6826785,-0.394485
9.781630993,0.5623982,0.2445022,-0.6875326,-0.3845173
9.813910484,0.5665672,0.241746,-0.6899458,-0.3757165
9.848673820,0.5678255,0.2382247,-0.6927889,-0.3708024
9.880953789,0.5675865,0.2402095,-0.6919404,-0.3714717
9.915716648,0.5671543,0.2479961,-0.6885858,-0.3732441
9.947992802,0.5680516,0.2539638,-0.6868153,-0.3711229
9.980272293,0.5728836,0.2541663,-0.687755,-0.3616967
10.015035152,0.5814096,0.2545103,-0.6872857,-0.3485016
10.047315598,0.5869183,0.2676163,-0.6773362,-0.3489296
10.082077980,0.5884513,0.2948862,-0.6557179,-0.3652791
10.114357948,0.5895422,0.3319568,-0.6210056,-0.3914387
10.149116993,0.5766047,0.3897288,-0.5768784,-0.4236479
10.181396961,0.5602624,0.4393735,-0.5381036,-0.447358
10.213676930,0.5522669,0.4705313,-0.5135378,-0.4544317
10.248439789,0.552551,0.4808963,-0.5125738,-0.4442093
10.280719757,0.563323,0.46742,-0.530708,-0.4232759
10.315483093,0.5770427,0.4441456,-0.5547878,-0.3982391
10.347758770,0.5885299,0.424324,-0.569488,-0.3819591
10.382522106,0.5983847,0.4082617,-0.5777138,-0.371662
10.414801598,0.6041707,0.3972419,-0.5829431,-0.3660349
10.447081566,0.6064259,0.3913326,-0.5868462,-0.3624166
10.481844902,0.6050578,0.3925036,-0.5874667,-0.3624314
10.514124393,0.6065684,0.3996152,-0.5817615,-0.3613359
10.548882961,0.6077416,0.3992019,-0.5831616,-0.3575448
10.581163406,0.6125891,0.3900615,-0.5882759,-0.3509213
10.613443375,0.6170992,0.3815369,-0.5917729,-0.3464833
10.648205757,0.6198785,0.3755505,-0.5927511,-0.3463904
10.680486202,0.6215574,0.3723381,-0.5935539,-0.3454741
10.715249062,0.6231759,0.3685807,-0.5949156,-0.3442428
10.747524738,0.626164,0.3645691,-0.5950944,-0.3427804
10.782288074,0.6293173,0.3609279,-0.595268,-0.3405504
10.814567566,0.6314961,0.3581842,-0.5965778,-0.3371045
10.846847534,0.632825,0.3551485,-0.5993004,-0.3329699
10.881610870,0.6339844,0.3510031,-0.602928,-0.3285819
10.913890362,0.6340836,0.3477913,-0.60676,-0.3247295
10.948649883,0.6333374,0.3445398,-0.6114491,-0.320833
10.980929375,0.6326468,0.3416043,-0.6157644,-0.3170591
11.015692711,0.633111,0.3371049,-0.6200398,-0.3125844
11.047972679,0.6343129,0.3326616,-0.6233882,-0.3082181
11.080252647,0.636035,0.3290149,-0.6254541,-0.3043743
11.115015507,0.6384784,0.3249348,-0.6271118,-0.3002022
11.147291660,0.6405979,0.3211111,-0.6286335,-0.2965969
11.182054520,0.6430681,0.3167617,-0.6297848,-0.2934695
11.214334488,0.64464,0.313174,-0.6312587,-0.2906917
11.249096870,0.6460841,0.3094838,-0.6330011,-0.2876324
11.281376839,0.6473606,0.3061397,-0.6347765,-0.2844103
11.313657284,0.6484683,0.3031073,-0.6366336,-0.2809633
11.348415852,0.6490842,0.300077,-0.638989,-0.2774242
11.380695820,0.6491911,0.2979153,-0.6412039,-0.2743764
11.415458679,0.6488564,0.2957301,-0.6440031,-0.2709557
11.447738647,0.6480625,0.294107,-0.6469273,-0.267636
11.480018616,0.6474882,0.2927458,-0.6497001,-0.2637734
11.514781475,0.6470415,0.2915852,-0.6525782,-0.2590073
11.547057629,0.6471964,0.2898124,-0.654912,-0.2546836
11.581820488,0.6467542,0.2889047,-0.6572833,-0.2506981
11.614100456,0.647059,0.2872669,-0.6588578,-0.2476414
11.648863792,0.6481237,0.2845694,-0.6596557,-0.2458414
11.681143284,0.6489837,0.2829566,-0.6593825,-0.2461669
11.713423252,0.64994,0.2816703,-0.6587491,-0.2468142
11.748182297,0.6511433,0.2792503,-0.6587248,-0.2464564
11.780462265,0.6518186,0.2777446,-0.6586558,-0.2465578
11.815225601,0.6517764,0.2779596,-0.6582668,-0.2474639
11.847505569,0.6514382,0.278764,-0.6578151,-0.248648
11.882268429,0.651055,0.2802709,-0.6568007,-0.2506312
11.914548397,0.6505862,0.2833651,-0.6550245,-0.253007
11.946824074,0.6512789,0.2845324,-0.653857,-0.2529344
11.981587410,0.6530138,0.2828913,-0.6540146,-0.2498763
12.014205933,0.6542549,0.2799871,-0.6554784,-0.2460354
12.048968792,0.6550339,0.27548,-0.6582453,-0.2416243
12.081248760,0.6547562,0.2723838,-0.6611791,-0.2378474
12.116011143,0.6544562,0.2697296,-0.6639504,-0.2339455
12.148287773,0.6548121,0.266685,-0.6663089,-0.2296962
12.180567741,0.6554117,0.2634192,-0.668366,-0.2257442
12.215330124,0.6563928,0.2594506,-0.6699951,-0.2226394
12.247610569,0.6572917,0.2560036,-0.6711086,-0.2206146
12.282373428,0.6585844,0.2525015,-0.6719009,-0.218372
12.314652920,0.6600334,0.2493814,-0.6723609,-0.2161555
12.349412441,0.6614562,0.2464003,-0.6728216,-0.213779
12.381691933,0.6623184,0.2441007,-0.6735231,-0.2115266
12.413972378,0.6628904,0.2414801,-0.6747181,-0.208918
