Time (s),Percentage (%),Time To Empty (minutes),Voltage (V),Current (mA),Is Charger Connected (Boolean)
0.183664799,88.10938,145.21875,4.0175,254.0625,0
1.238485813,88.09766,145.40625,4.0175,255,0
2.293613434,88.08594,145.6875,4.01625,257.1875,0
3.172359467,88.08594,145.875,4.0175,263.75,0
4.226939678,88.07031,145.96875,4.018125,262.8125,0
5.281798840,88.05859,145.96875,4.01875,259.6875,0
6.336568356,88.04688,146.0625,4.018125,258.75,0
7.215412617,88.03516,145.875,4.01625,267.5,0
8.270468712,88.03516,145.78125,4.018125,269.375,0
9.325015545,88.02344,145.5,4.015,260.3125,0
10.203890324,88.01172,145.5,4.015625,260.3125,0
11.258866310,88,144.75,4.0175,258.125,0
12.313652992,87.98828,144.65625,4.016875,260.3125,0
13.193143368,87.97266,144.9375,4.01875,247.5,0
14.247371674,87.97266,145.03125,4.0175,252.8125,0
15.301972389,87.96094,145.21875,4.01,266.875,0
16.181143761,87.94922,145.40625,4.01625,264.6875,0
17.235777378,87.9375,145.125,4.0175,275.3125,0
18.290570736,87.92578,145.125,4.015,263.75,0
19.170169354,87.92578,145.125,4.016875,255.625,0
20.224624157,87.91406,145.3125,4.016875,255.9375,0
21.279545784,87.90234,145.5,4.013125,254.6875,0
22.334508896,87.89063,145.6875,4.0175,263.75,0
23.213719845,87.875,145.78125,4.01625,259.375,0
24.268549442,87.86328,145.6875,4.015,279.0625,0
25.322983265,87.86328,145.40625,4.015,267.8125,0
26.202059746,87.85156,145.5,4.014375,260.625,0
27.256901741,87.83984,145.6875,4.016875,245.3125,0
28.311498642,87.82813,145.6875,4.01625,260.625,0
29.190591812,87.81641,145.6875,4.01375,257.5,0
30.245228291,87.81641,145.6875,4.015,247.1875,0
31.300161362,87.80469,145.40625,4.015625,307.1875,0
32.179128170,87.79297,145.59375,4.015625,268.75,0
33.233834267,87.77734,145.6875,4.01625,266.875,0
34.288994789,87.76563,145.78125,4.015,274.375,0
35.167633534,87.76563,145.96875,4.0125,261.875,0
36.222440243,87.75391,146.0625,4.0175,252.5,0
37.277295590,87.74219,145.96875,4.01375,267.8125,0
38.332175255,87.73047,145.5,4.01375,276.875,0
39.211418629,87.71875,145.3125,4.013125,258.75,0
41.320851326,87.69531,145.03125,4.014375,259.375,0
42.199816227,87.69531,145.03125,4.01375,257.8125,0
43.254497528,87.67969,145.125,4.013125,263.75,0
44.309304714,87.66797,145.21875,4.014375,261.5625,0
45.188492775,87.65625,145.21875,4.0175,253.125,0
46.243007660,87.65625,144.9375,4.015625,264.375,0
47.297929764,87.64453,144.9375,4.0125,269.375,0
48.176858425,87.63281,144.84375,4.015,259.6875,0
49.232055664,87.62109,144.75,4.01625,250.3125,0
50.286430836,87.60938,144.65625,4.013125,282.8125,0
51.165319920,87.60938,144.375,4.014375,273.75,0
52.220172405,87.59766,143.8125,4.016875,266.5625,0
53.275114536,87.58203,143.90625,4.013125,303.75,0
54.330465794,87.57031,143.90625,4.015625,258.125,0
55.209090710,87.55859,143.71875,4.0125,289.0625,0
56.263504028,87.54688,144,4.011875,259.0625,0
57.318453312,87.53516,144,4.013125,267.5,0
58.197386265,87.53516,144,4.0125,270.3125,0
59.252145290,87.52344,144,4.014375,266.5625,0
60.307080746,87.51172,144,4.015625,256.5625,0
61.185799122,87.5,144.1875,4.011875,269.6875,0
62.240754128,87.48438,144.46875,4.0125,255,0
63.295482159,87.48438,144.65625,4.01125,255.625,0
64.174564362,87.47266,144.65625,4.0125,276.875,0
65.229269028,87.46094,144.9375,4.013125,259.6875,0
66.283918858,87.44922,144.65625,4.013125,267.5,0
67.163008690,87.4375,144.1875,4.01125,304.6875,0
68.217770100,87.42578,144.1875,4.011875,272.5,0
69.272934437,87.42578,144.09375,4.0125,262.1875,0
70.327464581,87.41406,144,4.0125,269.0625,0
71.206449986,87.40234,144.09375,4.0125,258.4375,0
72.261238575,87.38672,144.09375,4.011875,272.1875,0
73.316030026,87.375,143.90625,4.011875,259.375,0
74.194992065,87.375,143.34375,4.0125,274.375,0
75.250443935,87.36328,143.4375,4.011875,253.75,0
76.305308342,87.35156,143.53125,4.013125,249.375,0
77.184341908,87.33984,143.34375,4.01,276.875,0
78.239144325,87.32813,143.25,4.011875,274.0625,0
79.293874741,87.31641,143.4375,4.0125,254.6875,0
80.172893047,87.31641,143.4375,4.01,285.625,0
81.227701664,87.30469,143.4375,4.011875,265,0
82.282524586,87.28906,143.25,4.0125,270.3125,0
83.337185383,87.27734,143.0625,4.0125,251.25,0
84.216073036,87.26563,143.4375,4.013125,262.8125,0
85.270977020,87.25391,143.90625,4.011875,264.6875,0
86.325719357,87.25391,144,4.0125,272.5,0
87.204594135,87.24219,144,4.011875,255.3125,0
88.259456158,87.23047,143.90625,4.01,261.5625,0
89.314104080,87.21875,143.8125,4.01,256.875,0
90.193802834,87.21875,144,4.010625,253.125,0
91.248295784,87.20703,144.09375,4.01125,275.9375,0
92.302808762,87.19141,144.28125,4.0125,257.5,0
93.181964874,87.17969,144.09375,4.011875,255,0
94.236619473,87.16797,144,4.01125,265,0
95.291710854,87.15625,143.8125,4.010625,251.25,0
96.170603752,87.15625,143.90625,4.009375,273.125,0
97.225087166,87.14453,143.90625,4.011875,259.375,0
98.280025959,87.13281,144,4.01,262.1875,0
99.334649563,87.12109,144,4.0125,259.0625,0
100.213855743,87.10938,144,4.011875,250.625,0
101.268537521,87.09375,143.8125,4.01,292.5,0
102.323228359,87.09375,143.71875,4.008125,263.75,0
103.202354431,87.08203,143.0625,4.0125,270,0
104.256980896,87.07031,143.0625,4.01125,260,0
105.312044144,87.05859,143.34375,4.01,260,0
106.190733433,87.04688,142.96875,4.00875,249.6875,0
107.245447159,87.04688,143.4375,4.004375,248.125,0
108.300889969,87.03516,143.4375,4.00875,269.0625,0
109.179864883,87.02344,143.53125,4.010625,264.6875,0
110.234883308,87.01172,143.53125,4.009375,262.8125,0
111.289461136,86.99609,143.625,4.01,276.875,0
112.168270588,86.99609,143.625,4.010625,254.375,0
113.223213673,86.98438,143.625,4.01,260,0
114.277867317,86.97266,143.625,4.008125,264.6875,0
115.332767963,86.96094,143.71875,4.006875,260,0
116.211622238,86.94922,143.625,4.00875,267.8125,0
117.266346932,86.9375,143.34375,4.00875,289.6875,0
118.321247101,86.92578,143.34375,4.0075,281.875,0
119.200181961,86.92578,143.34375,4.0075,254.375,0
120.255271435,86.91406,143.34375,4.008125,255.3125,0
122.188654900,86.88672,143.625,4.01,256.875,0
123.243588448,86.875,143.53125,4.008125,275.3125,0
124.298207760,86.875,143.53125,4.011875,263.75,0
125.177468777,86.86328,143.0625,4.00875,255,0
126.232152939,86.85156,142.78125,4.004375,263.125,0
127.286753655,86.83984,142.78125,4.008125,257.1875,0
128.165875912,86.82813,142.96875,4.0075,268.75,0
129.221089363,86.81641,142.78125,4.008125,269.0625,0
130.275278091,86.81641,143.0625,4.009375,265,0
131.330230713,86.80078,143.0625,4.0075,275.9375,0
132.208994865,86.78906,143.0625,4.006875,261.5625,0
133.263915539,86.77734,142.96875,4.01,251.875,0
134.318537235,86.76563,143.25,4.0075,258.4375,0
135.198268414,86.76563,143.4375,4.009375,268.4375,0
136.252543449,86.75391,143.4375,4.008125,260.625,0
137.307383061,86.74219,143.4375,4.00625,267.5,0
138.186457157,86.73047,143.25,4.0075,258.75,0
