Time (s),W,X,Y,Z
0.011015892,0.7096704,-0.1520014,-0.04589297,-0.6839482
0.043187141,0.7108096,-0.1550596,-0.0470544,-0.6819969
0.077833176,0.7121553,-0.1570209,-0.04780303,-0.6800896
0.110003471,0.7133295,-0.1575803,-0.04778667,-0.6787294
0.144649506,0.7143947,-0.1569961,-0.04699644,-0.6777989
0.176820755,0.715302,-0.1561237,-0.04595612,-0.6771147
0.211465836,0.7161891,-0.155624,-0.04531457,-0.6763347
0.243637085,0.7169883,-0.1555666,-0.04509565,-0.6755154
0.275808334,0.7178826,-0.1555265,-0.04488,-0.6745884
0.310454369,0.7187642,-0.1558762,-0.04481333,-0.6735726
0.342624664,0.7194447,-0.1564179,-0.04479607,-0.6727211
0.377270699,0.720359,-0.1566784,-0.04455953,-0.6716971
0.409441948,0.7212144,-0.1566795,-0.0442344,-0.6707999
0.444087505,0.7219663,-0.1573204,-0.04442808,-0.6698275
0.476258278,0.722683,-0.1573794,-0.04430602,-0.6690484
0.510904312,0.7233229,-0.156736,-0.0437742,-0.6685427
0.543075562,0.7238868,-0.1566094,-0.04370692,-0.6679662
0.577721119,0.7247276,-0.156922,-0.04378472,-0.6669753
0.609891892,0.7254005,-0.1573886,-0.04389839,-0.6661257
0.644537449,0.7260747,-0.1576963,-0.04389155,-0.6653184
0.676708698,0.7267314,-0.1577088,-0.04375669,-0.6646071
0.711354733,0.7274727,-0.1575787,-0.04352009,-0.6638419
0.743525028,0.7281693,-0.1575,-0.04327434,-0.6631126
0.775696278,0.7288076,-0.1574134,-0.04319574,-0.6624366
0.810342312,0.7294832,-0.1575242,-0.0431511,-0.6616692
0.842513085,0.7301052,-0.1577072,-0.04310782,-0.660942
0.877158642,0.730828,-0.1577647,-0.0429205,-0.6601411
0.909329891,0.731514,-0.1578342,-0.0429149,-0.6593646
0.943975926,0.7321896,-0.1582231,-0.04302903,-0.6585135
0.976146221,0.7326366,-0.1581348,-0.04293209,-0.6580438
1.010792255,0.7332798,-0.1577445,-0.04248862,-0.6574495
1.042963505,0.7339181,-0.1577762,-0.04237865,-0.6567363
1.077609539,0.7345656,-0.1579721,-0.04232724,-0.6559681
1.109779835,0.7352713,-0.1582982,-0.04236926,-0.6550957
1.144425869,0.7358941,-0.1582745,-0.04232191,-0.6544048
1.176597118,0.7363836,-0.1582452,-0.04231363,-0.6538616
1.211242199,0.7369278,-0.158289,-0.04228082,-0.6532396
1.243413448,0.7374315,-0.1582707,-0.04213754,-0.6526847
1.278059483,0.7379907,-0.1582315,-0.04193265,-0.6520751
1.310230732,0.7384607,-0.1582687,-0.04182904,-0.6515405
1.342401028,0.7389008,-0.1583458,-0.04176388,-0.6510267
1.377047062,0.739323,-0.1584219,-0.04173288,-0.6505306
1.409218311,0.7398173,-0.1583451,-0.04149138,-0.6500027
1.443863869,0.7403216,-0.1587059,-0.04160437,-0.649333
1.476034641,0.7407945,-0.1588677,-0.04148976,-0.6487611
1.510680676,0.7412134,-0.1586425,-0.04118697,-0.6483569
1.542851448,0.7416202,-0.1584391,-0.04096285,-0.6479555
1.577497482,0.7421033,-0.1587009,-0.04094004,-0.6473393
1.609668255,0.7424806,-0.1589546,-0.04086525,-0.6468491
1.644313812,0.7428277,-0.1590017,-0.0407945,-0.6464434
1.676485062,0.7432185,-0.158974,-0.04070655,-0.6460063
1.711131096,0.7435237,-0.1591616,-0.0408002,-0.6456031
1.743301392,0.7439483,-0.1592775,-0.04071568,-0.6450903
1.777947426,0.7444675,-0.1590581,-0.04038176,-0.6445662
1.810118675,0.7448873,-0.1590261,-0.04028315,-0.6440952
1.844763756,0.7453809,-0.1590308,-0.04021599,-0.6435269
1.876935005,0.7459031,-0.157542,-0.03885468,-0.6433718
1.909106255,0.7481264,-0.1495686,-0.02682394,-0.6433074
1.943752289,0.7507614,-0.1380987,-0.002981819,-0.6433542
1.975922585,0.7523356,-0.131043,0.03131345,-0.6422353
2.010568619,0.7565964,-0.1220414,0.08822711,-0.6336493
2.042739868,0.7644898,-0.1080013,0.1662422,-0.6106406
2.109556198,0.784414,-0.02627265,0.3906646,-0.477507
2.144202232,0.7840226,-0.0006384076,0.4883904,-0.3786958
2.176373482,0.7800992,0.00512551,0.5503834,-0.2917609
2.211018562,0.7740418,0.002387438,0.5963307,-0.2046235
2.243189812,0.7638625,-0.01435091,0.627538,-0.1383174
2.277835846,0.7512158,-0.04237973,0.6506652,-0.08450563
2.310006619,0.7416821,-0.05785723,0.6648986,-0.03313488
2.344652176,0.7374207,-0.06669739,0.6692525,0.02216069
2.376823425,0.7324884,-0.08095804,0.6704119,0.06389272
2.411468983,0.7277291,-0.09472013,0.6694202,0.09971283
2.443640232,0.7342542,-0.09907246,0.6546821,0.1381092
2.475811005,0.7552946,-0.09798545,0.6190079,0.1827176
2.510456562,0.7921777,-0.1073998,0.5564628,0.2188524
2.542627812,0.8210995,-0.1277447,0.5021306,0.2323132
2.577273846,0.7936127,-0.1703041,0.5351506,0.2267469
2.609444618,0.7859593,-0.2313506,0.5270024,0.2182677
2.644090176,0.7679037,-0.2687888,0.5386004,0.2112194
2.676261425,0.7753651,-0.2350684,0.5365599,0.2286544
2.710906506,0.7818474,-0.1930971,0.5393396,0.2390997
2.743077755,0.789366,-0.1929023,0.5376331,0.2174126
2.777723789,0.7961468,-0.19814,0.5304837,0.2051964
2.809895039,0.7978973,-0.2065049,0.5311322,0.1877282
2.844540119,0.7933444,-0.2171801,0.5392816,0.1709983
2.876711369,0.7910406,-0.2236798,0.5450187,0.1542868
2.911357403,0.7902515,-0.2318438,0.5499035,0.126431
2.943528652,0.7859305,-0.2488138,0.5565957,0.08505066
2.975698948,0.7799707,-0.2663694,0.5620649,0.03746637
3.010344982,0.7764578,-0.2765955,0.5630263,-0.01540518
3.042516232,0.7730514,-0.2888185,0.5566556,-0.07574775
3.077161312,0.7729122,-0.2922433,0.5428721,-0.1382677
3.109332562,0.7825955,-0.2698876,0.5238797,-0.1920485
3.143978596,0.7986883,-0.2334701,0.4890665,-0.2550105
3.176149845,0.8074901,-0.1948007,0.4574004,-0.3121299
3.210794926,0.8161756,-0.1435364,0.4145474,-0.3715274
3.242966175,0.8171486,-0.09841093,0.3696595,-0.4272738
3.277611733,0.8111404,-0.05899932,0.3157098,-0.4853094
3.309782982,0.8008618,-0.0295408,0.2631521,-0.5339722
3.344428539,0.7866202,0.005034838,0.2081699,-0.5783564
3.376599789,0.7705677,0.04103938,0.1633926,-0.6119409
3.411245346,0.7458236,0.05664518,0.09719694,-0.6540022
3.443416596,0.7179802,0.1250436,0.1324952,-0.6692832
3.478061676,0.7184527,0.1391267,0.1728404,-0.6566759
3.510232926,0.7305923,0.08542736,0.1384547,-0.6606021
3.542404175,0.7406448,0.03497564,0.1181711,-0.6579402
3.577049732,0.7501314,0.01447937,0.1212746,-0.6473124
3.609220982,0.7541708,0.02123428,0.1299704,-0.6407112
3.643866539,0.7520087,0.03311229,0.1333892,-0.6420448
3.676037789,0.7483796,0.04480124,0.1326331,-0.645722
3.710682869,0.7442406,0.0547625,0.1293553,-0.6503858
3.742854119,0.7399288,0.0671929,0.1328293,-0.653433
3.777500153,0.7365505,0.08201332,0.1429468,-0.6534225
3.809671402,0.7368207,0.08293878,0.1464182,-0.6522314
3.844316483,0.7386966,0.07771355,0.1453964,-0.6509805
3.876487732,0.7403228,0.07491145,0.1450312,-0.6495414
3.911133766,0.741213,0.07474402,0.1448659,-0.6485816
3.943305016,0.7416159,0.07452061,0.1433242,-0.6484892
3.977950096,0.742237,0.07354844,0.1412471,-0.6483455
4.010121346,0.743094,0.07230327,0.1400102,-0.647772
4.044767380,0.7441698,0.07140811,0.1396434,-0.6467144
4.076937675,0.7449987,0.07128547,0.1396205,-0.6457781
4.109108925,0.7456594,0.07142057,0.1393252,-0.6450639
4.143754959,0.7460341,0.07196575,0.1392234,-0.6445917
4.175926209,0.7461746,0.07257175,0.1393118,-0.6443421
4.210571289,0.7466493,0.07227727,0.1390152,-0.6438891
4.242742539,0.7472457,0.07131612,0.1385181,-0.6434116
4.277388096,0.7478241,0.07067449,0.1384786,-0.6428186
4.309559345,0.7482287,0.07092861,0.1387814,-0.6422541
4.344204903,0.7486279,0.07110739,0.1387354,-0.641779
4.376376152,0.7489761,0.07084426,0.1383385,-0.6414874
4.411021710,0.7492082,0.07053641,0.137963,-0.6413313
4.443192959,0.7490872,0.07046307,0.1376745,-0.6415424
4.477838040,0.7489076,0.07019005,0.1372534,-0.6418723
4.510009289,0.7491485,0.06843279,0.1356832,-0.6421145
4.544655323,0.7492644,0.06674241,0.134135,-0.6424826
4.576826573,0.7493288,0.06585603,0.1332077,-0.6426918
4.611471653,0.7499754,0.06396077,0.1316501,-0.6424499
4.643642903,0.7507504,0.06233423,0.1304835,-0.6419424
4.675814152,0.7513061,0.06175386,0.1302622,-0.641393
4.710459232,0.7517352,0.06132236,0.1296661,-0.6410524
4.742630482,0.7520682,0.06071445,0.1287167,-0.6409109
4.777276516,0.752249,0.06070751,0.1281353,-0.640816
4.809447766,0.7523456,0.06068997,0.12749,-0.6408329
4.844092846,0.7525509,0.06031396,0.1267701,-0.6407702
4.876264096,0.7527835,0.0600057,0.1263735,-0.6406043
4.910910130,0.7530639,0.05798596,0.1250053,-0.6407292
4.943081379,0.7545,0.05319681,0.1223467,-0.6399679
4.977726459,0.7564574,0.04816351,0.1188305,-0.6387171
5.009897709,0.7582415,0.04355097,0.1157534,-0.6374968
5.044543266,0.7595472,0.03898341,0.1114479,-0.637005
5.076714516,0.7604086,0.03315253,0.1051228,-0.6373826
5.111360073,0.7615177,0.02685536,0.09821934,-0.6374559
5.143531323,0.7609839,0.01986558,0.09148125,-0.6393493
5.175702572,0.76252,0.01232919,0.09460103,-0.6372517
5.210348129,0.7624546,0.01675022,0.1076302,-0.6351582
5.242518902,0.7603602,0.03787801,0.1256163,-0.6334555
5.277164459,0.765413,0.03352456,0.1181406,-0.6290385
5.309335709,0.7742285,-0.0197093,0.07881057,-0.6249785
5.343981266,0.781365,-0.04608789,0.06274208,-0.6164703
5.376152039,0.7884126,-0.04384178,0.06711948,-0.6071294
5.410798073,0.791464,-0.05476091,0.05731301,-0.6032652
5.442969322,0.7957841,-0.05383646,0.05972388,-0.5974028
5.477614403,0.7993588,-0.0388418,0.07149658,-0.5924802
5.509785652,0.8003728,-0.02555902,0.08126964,-0.59057
5.544431687,0.8006261,-0.01496672,0.08844765,-0.5895578
5.576602936,0.8005323,-0.01151048,0.08897278,-0.5896839
5.611248016,0.8008614,-0.01810007,0.08261108,-0.5899969
5.643419266,0.8014682,-0.02791094,0.07448494,-0.5898724
5.678065300,0.8036161,-0.03255349,0.07273354,-0.5869234
5.710236550,0.8047534,-0.02981329,0.07447151,-0.5852904
5.742406845,0.8049411,-0.02577559,0.07697693,-0.5848997
5.777052880,0.8046538,-0.02370028,0.078468,-0.5851848
5.809224129,0.804518,-0.0222438,0.07948298,-0.5852915
5.843869686,0.8041661,-0.02138283,0.0797708,-0.5857678
5.876040459,0.8044244,-0.02161022,0.08020072,-0.5853459
5.910686493,0.806196,-0.02470375,0.08073112,-0.5827074
5.942857743,0.8085682,-0.02767895,0.08205368,-0.5790908
5.977503300,0.8104704,-0.02538372,0.08384433,-0.5762737
6.009674072,0.8107445,-0.02017868,0.08454904,-0.5759907
6.044319630,0.8109172,-0.01507142,0.0868146,-0.5755668
6.076490879,0.8127393,-0.01676833,0.08795724,-0.5727695
6.111136436,0.8150912,-0.02208235,0.08384009,-0.5698572
6.143307686,0.8166508,-0.02014117,0.08152777,-0.5680289
6.177953243,0.8171225,-0.01327073,0.08000189,-0.5677694
6.210124493,0.8180624,-0.009086408,0.07923358,-0.5666049
6.244769573,0.819441,-0.0115691,0.07526884,-0.5651062
6.276940823,0.8204648,-0.00923719,0.07527533,-0.5636609
6.309112072,0.8213769,-0.004712048,0.07757203,-0.5620748
6.343758106,0.8219187,-0.002735535,0.07821531,-0.561206
6.375928402,0.8223724,-0.003186236,0.07723894,-0.5606738
6.410574436,0.8233396,-0.004337758,0.07534066,-0.5595038
6.442745686,0.8243019,-0.004536583,0.07402655,-0.5582595
6.477391720,0.8258709,-0.001943373,0.07590117,-0.555698
6.509562016,0.8271072,0.0016818,0.07624479,-0.5538099
6.544208050,0.8284906,0.003461065,0.07372722,-0.552072
6.576379299,0.8312616,-0.0006505768,0.07211173,-0.5481163
6.611024857,0.8344138,-0.002341178,0.0724135,-0.5432608
6.643195629,0.8363143,-0.004713485,0.06995218,-0.5406391
6.677841664,0.8374612,-0.01286627,0.06566752,-0.5392669
6.710012913,0.8397207,-0.01254628,0.07320605,-0.5347714
6.744657993,0.8434398,-0.008571866,0.08616111,-0.52701
6.776829243,0.8476929,-0.0195206,0.09265178,-0.5187283
6.811474800,0.8540679,-0.03924175,0.1028365,-0.505055
6.843646050,0.8609055,-0.06048727,0.1128748,-0.4889477
6.875816822,0.8675944,-0.08379675,0.1251684,-0.4703386
6.910462857,0.8738905,-0.1073565,0.1401841,-0.4491837
6.942633629,0.8797292,-0.1262525,0.1506479,-0.4290335
6.977279663,0.8864163,-0.1441195,0.1560051,-0.4071683
7.009450436,0.893814,-0.1555223,0.1548623,-0.3867231
7.044095993,0.9030773,-0.1560444,0.1448468,-0.3684408
7.076267242,0.9080184,-0.1688376,0.1228492,-0.3585138
7.110913277,0.9070603,-0.20426,0.09060413,-0.3520483
7.143083572,0.9036633,-0.2390965,0.06519703,-0.3443871
7.177729607,0.9011655,-0.262618,0.04824839,-0.3365
7.209900856,0.9013616,-0.2707565,0.03965271,-0.3305956
7.244546890,0.9040169,-0.2668616,0.03655742,-0.3268478
7.276717186,0.9077588,-0.2573171,0.03397981,-0.3243994
7.311363220,0.9176657,-0.2351893,0.02865052,-0.3136598
7.343534470,0.9336849,-0.1893232,0.01715677,-0.2978632
7.375705719,0.9427677,-0.1503254,-0.01639087,-0.2914626
7.410350800,0.9445697,-0.1339981,-0.03516835,-0.2919305
7.442522049,0.9530685,-0.06105816,-0.04102236,-0.2878838
7.509338379,0.9506945,0.03497755,-0.102449,-0.2847604
7.543984413,0.9472504,0.0533594,-0.139974,-0.2773165
7.576155663,0.9432068,0.08458574,-0.1667253,-0.2683959
7.610801220,0.9340601,0.1270067,-0.1943152,-0.2650852
7.642971993,0.9275492,0.145408,-0.222318,-0.2563421
7.677618027,0.9218603,0.1568449,-0.2515369,-0.2427548
7.709789276,0.9201384,0.1579375,-0.2721421,-0.2257597
7.744434834,0.9258642,0.1261564,-0.2926147,-0.1945877
7.776605606,0.9346669,0.09039392,-0.296445,-0.1642395
7.811251164,0.9466886,0.06085727,-0.2747193,-0.1457185
7.843422413,0.9566298,0.03879703,-0.2460408,-0.1394475
7.878068447,0.965955,0.0447372,-0.2070947,-0.1366349
7.910239220,0.9733682,0.05813398,-0.160469,-0.1416053
7.942409992,0.9790526,0.05741787,-0.1098872,-0.1507039
7.977056026,0.9841344,0.02930753,-0.04449203,-0.1589614
8.009227276,0.9849285,-0.009282243,0.004759544,-0.162587
8.043872356,0.9859711,-0.03565195,0.02599348,-0.1501399
8.076043606,0.9872259,-0.07413509,0.01660713,-0.1274395
8.110689640,0.9874163,-0.0924178,0.02032036,-0.1126184
8.142860889,0.9849231,-0.1133789,0.04049037,-0.1098174
8.209677219,0.9755041,-0.1672309,0.07786676,-0.1048334
8.244323254,0.9689685,-0.1969638,0.08389281,-0.1090635
8.276494503,0.9588034,-0.2385739,0.0897435,-0.1111408
8.311139584,0.9466103,-0.2786576,0.1040242,-0.1099345
8.343310833,0.9394998,-0.2948734,0.1229741,-0.109064
8.377956390,0.932106,-0.3071677,0.1484518,-0.106847
8.410127640,0.924243,-0.3179341,0.1753839,-0.102766
8.444773197,0.9133739,-0.3301497,0.2108962,-0.09433857
8.476944447,0.8940276,-0.3546534,0.2527192,-0.08772727
8.509115219,0.8635112,-0.3915444,0.3020784,-0.08010904
8.543761253,0.8236519,-0.4322315,0.3569068,-0.06339163
8.575932026,0.7871667,-0.4634357,0.4015028,-0.03192186
8.610577583,0.7516341,-0.4977289,0.4286811,0.01312519
8.642748833,0.7197775,-0.5314107,0.4382361,0.06402884
8.677394867,0.7075699,-0.5389193,0.4294249,0.1453706
8.709565163,0.7275794,-0.5177928,0.3842831,0.2268759
8.744211197,0.7530513,-0.4853969,0.308396,0.3143609
8.776382446,0.758949,-0.4612192,0.2318217,0.3926312
8.811028481,0.7353216,-0.4677649,0.1708321,0.4560068
8.843198776,0.7014051,-0.4840196,0.1323493,0.5028589
8.877844811,0.6741219,-0.486889,0.08596257,0.5456527
8.910016060,0.654641,-0.481068,0.03847285,0.5789354
8.944661617,0.64049,-0.467239,-0.02044319,0.6063578
8.976832390,0.6328055,-0.447068,-0.05984425,0.6266845
9.009003639,0.6405128,-0.4098655,-0.1075411,0.6378214
9.043649673,0.6560009,-0.3496717,-0.1918007,0.6381477
9.075819969,0.6399107,-0.3496128,-0.2102539,0.6486186
9.110466003,0.6078423,-0.3850852,-0.1892475,0.6656201
9.142637253,0.5954315,-0.3880923,-0.1995036,0.6720653
9.177282810,0.5719669,-0.4005477,-0.1978941,0.6854786
9.209453583,0.5515965,-0.4149882,-0.1877308,0.6963555
9.244099617,0.5390138,-0.419982,-0.1916616,0.7021202
9.276270866,0.5394161,-0.4120804,-0.2257344,0.6963415
9.310916424,0.5256763,-0.4106049,-0.2686615,0.6924714
9.343087196,0.5106996,-0.4174612,-0.2760409,0.6966643
9.377732754,0.5172064,-0.3958887,-0.3082788,0.6909136
9.409904003,0.5126504,-0.3837579,-0.3279426,0.6920989
9.444550037,0.4881659,-0.3932443,-0.3441966,0.6965697
9.476720333,0.4703405,-0.406947,-0.3441045,0.7009948
9.511366367,0.4704841,-0.3903446,-0.3677037,0.6983534
9.543537617,0.4558507,-0.3829768,-0.3761216,0.707594
9.575708866,0.446404,-0.381396,-0.3860483,0.7091226
9.610353947,0.4394425,-0.3742027,-0.4113012,0.7030801
9.642525196,0.4324767,-0.3677624,-0.4136561,0.7093878
9.677171230,0.4271972,-0.3528017,-0.4377834,0.705696
9.709342480,0.4139218,-0.3540859,-0.4450794,0.7083953
9.743987560,0.4035615,-0.3524116,-0.4480591,0.7133126
9.776158810,0.402217,-0.3360049,-0.4560953,0.7168871
9.810804844,0.391712,-0.3287752,-0.4691294,0.7176447
9.842976093,0.3796169,-0.3326778,-0.4615062,0.7272251
9.877621174,0.3839293,-0.3204575,-0.4655209,0.7278897
9.909792423,0.385397,-0.3065756,-0.4737722,0.7277693
9.944437981,0.373309,-0.3087591,-0.4766312,0.7312719
9.976609230,0.3739633,-0.3064343,-0.4751596,0.7328714
10.011254787,0.3814471,-0.2954388,-0.474959,0.733659
10.043426037,0.3745411,-0.2945355,-0.4745804,0.7378137
10.078071594,0.3744137,-0.2954135,-0.4782782,0.7351345
10.110242844,0.3738303,-0.2946113,-0.4682164,0.7421969
10.142413616,0.3726243,-0.2898294,-0.4680882,0.7447625
10.177059174,0.3713024,-0.2894585,-0.4655395,0.7471607
10.209230423,0.3716831,-0.2853672,-0.4612201,0.751213
10.243876457,0.3764982,-0.2707561,-0.4639585,0.7525361
10.276046753,0.3734358,-0.2665691,-0.4730122,0.749916
10.310692787,0.3711332,-0.2679305,-0.4596016,0.7588593
10.342864037,0.3702906,-0.2630714,-0.4689522,0.7552415
10.377510071,0.3686118,-0.2646133,-0.4637216,0.7587457
10.409680367,0.3683753,-0.2645304,-0.4559521,0.7635828
10.444326401,0.3731889,-0.2616169,-0.4625274,0.7582762
10.476497650,0.3750716,-0.2657331,-0.4522382,0.7621124
10.511143208,0.3786284,-0.265212,-0.452361,0.7604606
10.543313980,0.3778544,-0.264733,-0.4473682,0.763958
10.577960014,0.3701935,-0.2625251,-0.4176001,0.785032
10.610131264,0.3711555,-0.2678706,-0.3714959,0.8056719
10.644776821,0.3782777,-0.2953525,-0.2793427,0.8296192
10.676947594,0.3922707,-0.3157283,-0.2359575,0.8290905
10.709118843,0.4013056,-0.3301767,-0.2406576,0.8177094
10.743764401,0.4014386,-0.3557963,-0.2529312,0.8030626
10.775935173,0.3969082,-0.3923455,-0.2394337,0.7923559
10.810581207,0.3934078,-0.418296,-0.22544,0.784897
10.842752457,0.3958847,-0.4088784,-0.2600432,0.777881
10.877398014,0.3655759,-0.429887,-0.2457613,0.7859901
10.909569264,0.3554352,-0.4257846,-0.2624932,0.7874632
10.944214344,0.3432155,-0.4285841,-0.2619538,0.7915345
10.976385593,0.3362554,-0.4256083,-0.2628252,0.7958269
11.011031628,0.330132,-0.4191127,-0.2634409,0.8016134
11.043202877,0.3241141,-0.4144157,-0.2610802,0.8072636
11.077847958,0.3206807,-0.4049399,-0.2599543,0.8137807
11.110019207,0.318583,-0.3948127,-0.2570623,0.8204721
11.144665241,0.3177374,-0.3850985,-0.2532112,0.8265917
11.176836491,0.318073,-0.3784939,-0.2506173,0.8302956
11.209006786,0.3178214,-0.3703339,-0.248669,0.8346459
11.243652821,0.3182387,-0.3612856,-0.2439899,0.8398175
11.275824070,0.3210863,-0.3510509,-0.2431314,0.8433158
11.310469627,0.3240259,-0.3400712,-0.2446291,0.8462524
11.342640400,0.3264248,-0.332242,-0.2424322,0.849068
11.377286434,0.3285522,-0.3223031,-0.2448164,0.8513911
11.409457684,0.3307548,-0.3116188,-0.244217,0.8546816
11.444103241,0.3376039,-0.2959928,-0.2443242,0.8575227
11.476274014,0.3437707,-0.2826255,-0.2497133,0.85803
11.510919571,0.3465281,-0.2749164,-0.2560337,0.8575626
11.543090820,0.3487889,-0.2602949,-0.2697107,0.8570161
11.577736855,0.3501841,-0.239015,-0.2820307,0.8586788
11.609907627,0.3574836,-0.218601,-0.2902496,0.8583716
11.644553185,0.373932,-0.1931198,-0.3119595,0.8498169
11.676724434,0.3918024,-0.1699973,-0.3342057,0.8381682
11.711370468,0.4183477,-0.1522918,-0.3324446,0.8293977
11.743540764,0.4579507,-0.1364862,-0.3215295,0.8154135
11.775712013,0.5165925,-0.1220281,-0.3197407,0.7827099
11.810358048,0.5840584,-0.09679925,-0.3419593,0.7274593
11.842529297,0.6415787,-0.07333297,-0.3514597,0.6753536
11.877174378,0.6908831,-0.04925791,-0.3524356,0.6266346
11.909345627,0.7258164,-0.02881327,-0.3476155,0.5900435
11.943991661,0.7540041,-0.01035029,-0.3440183,0.5564619
11.976162910,0.7770256,0.007587934,-0.3379185,0.5278374
12.010807991,0.8005708,0.01177254,-0.3240995,0.5005347
12.042979240,0.8210432,0.009702126,-0.3127944,0.4739
12.077624798,0.8404493,0.0111834,-0.3099634,0.4405339
12.109796047,0.856939,0.006842385,-0.3098335,0.4077248
12.144441605,0.8717785,-0.010902,-0.3105319,0.3742735
12.176612854,0.882268,-0.02746874,-0.3167462,0.3422691
12.211258411,0.8884975,-0.0246277,-0.3324274,0.3099762
12.243429661,0.8931881,-0.003277539,-0.3512568,0.2746827
12.278074741,0.8968692,0.01498908,-0.3681942,0.237616
