Time (s),W,X,Y,Z
0.025692940,0.7616106,-0.4966938,-0.1594402,-0.3800674
0.060989857,0.7617097,-0.4976237,-0.1591561,-0.378769
0.093766212,0.7620832,-0.4981388,-0.1584843,-0.3776208
0.126542568,0.7623946,-0.4986716,-0.1580694,-0.3764609
0.159318924,0.7626551,-0.4993392,-0.1574006,-0.375327
0.192095756,0.7630073,-0.4997759,-0.156672,-0.3743333
0.227393150,0.7635427,-0.4999263,-0.1558954,-0.3733637
0.260169506,0.763943,-0.5002378,-0.1550999,-0.372458
0.292946338,0.7641076,-0.5009528,-0.1545205,-0.3713985
0.325722694,0.7643616,-0.5014107,-0.1539797,-0.3704817
0.358499050,0.7646168,-0.5018703,-0.1533548,-0.369591
0.393796921,0.7650716,-0.5019471,-0.1525604,-0.3688736
0.426573276,0.7652791,-0.502296,-0.1520767,-0.3681669
0.459349632,0.7655759,-0.5028301,-0.1513668,-0.3671121
0.492125988,0.7660801,-0.5029466,-0.1505998,-0.3662152
0.527423859,0.76631,-0.5033795,-0.1499572,-0.3654017
0.560200214,0.76683,-0.5031625,-0.1493635,-0.3648528
0.592976570,0.7670631,-0.5034449,-0.1489319,-0.3641488
0.625752926,0.7672173,-0.5040435,-0.1484187,-0.3632047
0.658529282,0.767598,-0.5041159,-0.1477632,-0.362566
0.693827152,0.7679456,-0.5041803,-0.1471529,-0.3619883
0.726603508,0.7682258,-0.5043136,-0.146686,-0.3613968
0.759379864,0.7685746,-0.5043631,-0.1461887,-0.3607873
0.792156219,0.7691337,-0.5041127,-0.1454745,-0.3602338
0.827453613,0.7695225,-0.5041148,-0.1449236,-0.3596222
0.860229969,0.7696934,-0.5044695,-0.1444258,-0.3589592
0.893006325,0.76991,-0.5047436,-0.1440054,-0.3582774
0.925782680,0.7702938,-0.5046688,-0.1434796,-0.3577686
0.958559036,0.77051,-0.5049732,-0.1429415,-0.3570879
0.993856907,0.7706462,-0.5053882,-0.1424737,-0.3563934
1.026633263,0.7708565,-0.5055489,-0.1419441,-0.3559217
1.059409618,0.7710944,-0.5057126,-0.141386,-0.3553953
1.092185974,0.7713297,-0.5059779,-0.1408561,-0.354717
1.127483845,0.7716824,-0.5060413,-0.1403149,-0.3540733
1.160260200,0.7717774,-0.506582,-0.139947,-0.3532379
1.193036556,0.7721604,-0.5066679,-0.1393719,-0.3525043
1.225813389,0.7723266,-0.5070058,-0.1390209,-0.3517919
1.258589744,0.77249,-0.507235,-0.1387435,-0.3512118
1.293887615,0.7726714,-0.5074877,-0.1385171,-0.3505363
1.326663971,0.7730419,-0.5073439,-0.1381391,-0.3500763
1.359440327,0.7732275,-0.507556,-0.1377881,-0.3494973
1.392216682,0.7735075,-0.5076569,-0.1375069,-0.348841
1.427514553,0.7736406,-0.5080492,-0.1371567,-0.3481117
1.460290909,0.7737652,-0.5083019,-0.1368556,-0.3475844
1.493067264,0.7739316,-0.5085812,-0.1366093,-0.3469015
1.525843143,0.7741218,-0.5088326,-0.1361721,-0.3462796
1.558619499,0.7743292,-0.5089366,-0.1359023,-0.3457686
1.593917370,0.774469,-0.5091109,-0.1357356,-0.3452643
1.626693725,0.774533,-0.5094271,-0.1356138,-0.3447018
1.659470081,0.7747246,-0.5095394,-0.1352949,-0.34423
1.692246437,0.7748592,-0.5096215,-0.1351141,-0.3438763
1.727544308,0.7750981,-0.5098182,-0.1347852,-0.3431747
1.760320663,0.775398,-0.5099299,-0.1344329,-0.3424691
1.793097019,0.7758716,-0.5096784,-0.1339997,-0.3419397
1.825873375,0.7760635,-0.509779,-0.1337492,-0.3414523
1.858649731,0.7761268,-0.5100543,-0.1335739,-0.3409654
1.893947601,0.776189,-0.5102875,-0.1333739,-0.3405532
1.926723957,0.7764459,-0.5101974,-0.1329656,-0.340262
1.959500313,0.7765123,-0.5103021,-0.1328187,-0.3400106
1.992276669,0.7766029,-0.5104519,-0.1325979,-0.3396653
2.027574539,0.7768129,-0.5103298,-0.1323111,-0.3394803
2.060350895,0.7767405,-0.5106569,-0.1321675,-0.3392096
2.093127251,0.7767027,-0.5111537,-0.1319254,-0.3386417
2.125904083,0.7769393,-0.5111186,-0.1315619,-0.3382934
2.158680439,0.7771958,-0.5109553,-0.1311627,-0.3381057
2.193977356,0.7771003,-0.5113309,-0.1309973,-0.3378216
2.226753712,0.7771718,-0.5116363,-0.1306828,-0.3373158
2.259530067,0.7773246,-0.5118734,-0.130147,-0.3368109
2.292306423,0.7775602,-0.5118014,-0.1297949,-0.3365118
2.325083256,0.7776902,-0.5117335,-0.1296654,-0.336365
2.360380649,0.7777982,-0.5117883,-0.1294092,-0.3361307
2.393157005,0.7778316,-0.5120783,-0.129184,-0.3356977
2.425933838,0.7780757,-0.5118813,-0.1288496,-0.3355613
2.458710194,0.7782582,-0.5117948,-0.1285578,-0.3353814
2.494007587,0.7784707,-0.511662,-0.1283429,-0.3351734
2.526784420,0.7785807,-0.5118278,-0.1280396,-0.3347802
2.559560776,0.7786784,-0.5120388,-0.1277304,-0.3343484
2.592337131,0.778851,-0.5121325,-0.1274013,-0.3339282
2.627635002,0.7789816,-0.5122296,-0.1271039,-0.3335882
2.660411358,0.7790135,-0.5123636,-0.1269137,-0.3333798
2.693187714,0.7789093,-0.5127261,-0.1267644,-0.3331226
2.725964069,0.7790612,-0.5128384,-0.1264234,-0.3327239
2.758740425,0.7791653,-0.5129572,-0.1261736,-0.3323919
2.794037819,0.7768747,-0.5169703,-0.1259241,-0.3316294
2.826814175,0.7552255,-0.5500086,-0.1267561,-0.3281545
2.859590530,0.713385,-0.6048883,-0.1200662,-0.3277249
2.892366886,0.6600951,-0.660549,-0.09784815,-0.3391206
2.925143242,0.5995183,-0.7040246,-0.0649121,-0.3705957
2.960441113,0.5533627,-0.7152514,-0.01432148,-0.4226435
2.993217468,0.5119379,-0.7100218,0.0397294,-0.4783699
3.025993824,0.4701991,-0.6932305,0.09444042,-0.5348389
3.058770180,0.4394319,-0.6592135,0.1555137,-0.5871798
3.094068050,0.3992628,-0.6219963,0.227341,-0.63139
3.126844406,0.3640778,-0.580524,0.2876661,-0.6665696
3.159620762,0.333293,-0.5385956,0.3522733,-0.6865579
3.192397117,0.302952,-0.5020842,0.410295,-0.6960008
3.225173950,0.2711574,-0.4756503,0.4588494,-0.6973631
3.260471344,0.2239002,-0.463906,0.4744297,-0.7114802
3.293247700,0.1879593,-0.4542742,0.4810484,-0.7235512
3.326024532,0.1687691,-0.4391896,0.4967003,-0.7270117
3.358800888,0.1578856,-0.4237195,0.5008484,-0.7357394
3.394097805,0.1624897,-0.3989115,0.4956809,-0.7519274
3.426874161,0.1811371,-0.3673819,0.4768646,-0.7755306
3.459650516,0.210868,-0.3247534,0.4358451,-0.8103927
3.492426872,0.2649741,-0.2623878,0.3947902,-0.837681
3.525203705,0.2668962,-0.2483086,0.3206348,-0.872313
3.560501099,0.2706921,-0.2521804,0.3776935,-0.846821
3.593277454,0.3017683,-0.2057428,0.4376076,-0.8195933
3.626054287,0.3008186,-0.2133161,0.4223831,-0.8259689
3.658830643,0.2997064,-0.229046,0.3932366,-0.8364846
3.694128036,0.2997895,-0.2395627,0.3652336,-0.846149
3.726904869,0.304123,-0.2434869,0.3596923,-0.8458561
3.759681225,0.3070715,-0.2497693,0.3549109,-0.8449783
3.792457581,0.3111775,-0.254444,0.3514477,-0.8435278
3.825233936,0.3152369,-0.2593261,0.3477399,-0.8420691
3.860531807,0.3205794,-0.2657862,0.3459477,-0.8387696
3.893308163,0.3345119,-0.2674794,0.3531995,-0.8297194
3.926084518,0.3544481,-0.2705419,0.3583565,-0.8181576
3.958860874,0.3831972,-0.271191,0.3621026,-0.8031965
3.994157791,0.419583,-0.2766624,0.3521259,-0.7874281
4.026934624,0.4603834,-0.2836089,0.3379995,-0.7681126
4.059710979,0.5052912,-0.2953686,0.3142191,-0.7452062
4.092487335,0.5528948,-0.307935,0.281988,-0.7187445
4.125263691,0.5965214,-0.327695,0.238419,-0.6903349
4.160561561,0.6423023,-0.3511154,0.1829693,-0.6536938
4.193337917,0.6788954,-0.3767905,0.1297636,-0.6139373
4.226114273,0.7000363,-0.4191496,0.06736322,-0.5712726
4.258890629,0.7115316,-0.4625635,0.01537754,-0.5254986
4.294188499,0.7311625,-0.4809054,-0.02547526,-0.4796978
4.326964855,0.744009,-0.4962918,-0.05911409,-0.4396341
4.359741211,0.746389,-0.5099081,-0.09566504,-0.4127626
4.392517567,0.7626782,-0.4973118,-0.1141351,-0.3931966
4.425293922,0.7845677,-0.4710842,-0.1174423,-0.3812718
4.460591793,0.7934187,-0.462301,-0.1274639,-0.3703312
4.493368149,0.8012555,-0.4490898,-0.1343932,-0.3672521
4.526144504,0.8104231,-0.4278052,-0.1383375,-0.3710629
4.558921337,0.8009803,-0.442904,-0.1465266,-0.3707078
4.594218254,0.7901722,-0.4616974,-0.1515681,-0.3689419
4.626994610,0.7884295,-0.4624103,-0.1508881,-0.3720433
4.659770965,0.7912236,-0.4539427,-0.1484503,-0.3774803
4.692547321,0.7933506,-0.4475061,-0.1467948,-0.3813292
4.725324154,0.7890655,-0.4545028,-0.1499421,-0.3807202
4.760621548,0.7846262,-0.4633141,-0.1523048,-0.3783288
4.793397903,0.7828932,-0.4681304,-0.1516371,-0.3762527
4.826174736,0.7816095,-0.4727413,-0.1503195,-0.3736764
4.858951092,0.7808932,-0.4759444,-0.1498567,-0.3712863
4.894248486,0.781242,-0.4763085,-0.1494549,-0.3702458
4.927025318,0.7827455,-0.4739426,-0.1477355,-0.3707959
4.959801674,0.7841728,-0.4709931,-0.1468191,-0.371901
4.992578030,0.7849995,-0.4694881,-0.1461051,-0.3723412
5.025354385,0.7846624,-0.4704361,-0.1463678,-0.3717511
5.060652256,0.7840925,-0.4722274,-0.1467418,-0.3705331
5.093428612,0.7835234,-0.473842,-0.1466007,-0.3697308
5.126204490,0.7833639,-0.4746805,-0.1460146,-0.3692247
5.158980846,0.7830861,-0.4754672,-0.145589,-0.3689698
5.194278240,0.7827111,-0.4762613,-0.1451645,-0.3689086
5.227055073,0.7827753,-0.4762033,-0.1447347,-0.3690161
5.259831428,0.7826357,-0.47654,-0.1444822,-0.3689762
5.292607784,0.7826045,-0.4767475,-0.1443541,-0.3688249
5.325384140,0.7821723,-0.4776464,-0.1442152,-0.3686328
5.360682011,0.7811816,-0.4795186,-0.1438725,-0.3684367
5.393458366,0.7807779,-0.4802829,-0.1431617,-0.3685735
5.426234722,0.7806946,-0.4803912,-0.1422624,-0.3689573
5.459011078,0.7800133,-0.4816791,-0.1417394,-0.3689201
5.491787434,0.7756633,-0.4894854,-0.1444196,-0.366771
5.527085304,0.7719344,-0.498186,-0.1459436,-0.3622929
5.559861660,0.7688941,-0.506068,-0.1469972,-0.3573745
5.592638016,0.7644082,-0.5165477,-0.1489636,-0.351135
5.625414371,0.762125,-0.5235505,-0.1498571,-0.3452983
5.660711765,0.7590688,-0.532167,-0.1507397,-0.3384052
5.693488121,0.7561107,-0.5403476,-0.1512535,-0.3317695
5.726264477,0.7548205,-0.5459691,-0.1506724,-0.3257135
5.759040832,0.754261,-0.5506682,-0.1489508,-0.3198377
5.791817188,0.7531007,-0.5560803,-0.147615,-0.3137698
5.827115059,0.7558246,-0.5564447,-0.1438654,-0.3082675
5.859891415,0.760133,-0.5540066,-0.1392935,-0.3041373
5.892667770,0.7660757,-0.5481116,-0.1351305,-0.3017767
5.925444126,0.7745464,-0.5361696,-0.1327408,-0.3026674
5.960741997,0.7858148,-0.5152954,-0.1320794,-0.3100782
5.993518353,0.7934837,-0.4950964,-0.1359238,-0.3215829
6.026294708,0.7969468,-0.4768375,-0.1424092,-0.3374154
6.059071541,0.7949336,-0.4631146,-0.1527627,-0.3562256
6.091847897,0.7838533,-0.4643165,-0.1660526,-0.3728786
6.127145767,0.7655426,-0.480918,-0.177144,-0.3845907
6.159921169,0.7432558,-0.5142062,-0.1813885,-0.3832605
6.192697525,0.7158647,-0.5627935,-0.1769635,-0.3689344
6.225474357,0.6867701,-0.6121839,-0.1666753,-0.3498923
6.260771751,0.6592475,-0.6551135,-0.1492565,-0.3325195
6.293548107,0.6462272,-0.6802419,-0.1229551,-0.3180735
6.326324940,0.6349002,-0.7030981,-0.09792978,-0.2993195
6.359101295,0.6299127,-0.719197,-0.07683413,-0.2769294
6.391877651,0.6347572,-0.7257462,-0.05333666,-0.2532954
6.427175522,0.6392579,-0.7317371,-0.02859781,-0.2274202
6.459951877,0.638302,-0.7403977,-0.005673394,-0.2024282
6.492728233,0.6322392,-0.7516361,0.01209427,-0.1783206
6.525504589,0.6250274,-0.7626123,0.0258049,-0.1540288
6.560802460,0.6175252,-0.772753,0.04075028,-0.1283841
6.593578815,0.612045,-0.7789011,0.06167513,-0.1074147
6.626355171,0.5990689,-0.7889995,0.07959584,-0.09427785
6.659131050,0.5907227,-0.7938269,0.1009188,-0.08560761
6.691907406,0.5942553,-0.7885504,0.1237496,-0.07976631
6.727205276,0.5880439,-0.7896025,0.1475036,-0.07485006
6.759981632,0.5619556,-0.8046978,0.1701416,-0.06593007
6.792757988,0.5166713,-0.8293766,0.1962295,-0.05750619
6.825534344,0.4806424,-0.8461185,0.2177015,-0.0479574
6.860832214,0.445377,-0.8584615,0.2460272,-0.0279554
6.893608570,0.4112768,-0.8691325,0.2683164,-0.009692194
6.926384926,0.3698665,-0.8798754,0.2923271,0.01380352
6.959161282,0.3350494,-0.8850524,0.3156014,0.03804581
6.991937637,0.3146528,-0.8818182,0.3399294,0.06682662
7.027235508,0.3007913,-0.8715342,0.3692403,0.1012035
7.060011864,0.2947863,-0.8553045,0.3986625,0.1387478
7.092788219,0.2774347,-0.8353271,0.4345286,0.1818543
7.125564575,0.2648835,-0.8112735,0.4662879,0.2255553
7.160861969,0.2658265,-0.7725453,0.4952103,0.2896625
7.193638325,0.2800719,-0.7289968,0.5071073,0.3599904
7.226414680,0.3019155,-0.6797297,0.5027,0.4367319
7.259191036,0.3233943,-0.6255778,0.491062,0.5094646
7.291967392,0.3510585,-0.5939503,0.5060659,0.5143009
7.327265262,0.5734817,-0.4267983,0.3572986,0.5982683
7.360041618,0.680234,-0.2972188,0.2822089,0.60492
7.392817974,0.6478371,-0.3069158,0.4301041,0.5456628
7.425594330,0.6725143,-0.2730042,0.4507769,0.5163536
7.460892200,0.7023746,-0.2557269,0.4162048,0.5144654
7.493668556,0.6980488,-0.2753012,0.3909953,0.5297994
7.526445389,0.6783003,-0.2994898,0.370552,0.5563572
7.559221744,0.6661057,-0.2979941,0.3096396,0.6068391
7.591998100,0.6372062,-0.3213125,0.3064147,0.6272672
7.627295017,0.6017971,-0.3416152,0.3004269,0.653843
7.660071373,0.5974112,-0.3124764,0.2569384,0.6899771
7.692847729,0.593518,-0.2952176,0.2286684,0.7105782
7.725624561,0.5947567,-0.2732814,0.2095692,0.7240788
7.760921955,0.604371,-0.2382706,0.1781287,0.7367909
7.793698311,0.6131049,-0.197148,0.1502436,0.7478566
7.826475143,0.6179277,-0.1770928,0.1572953,0.7474553
7.859251499,0.6196257,-0.1693548,0.1765946,0.743522
7.892027855,0.6210508,-0.1688113,0.2033148,0.7355877
7.927325726,0.6185368,-0.1893937,0.2442768,0.7200684
7.960102081,0.6134349,-0.216005,0.2868729,0.7009787
7.992878437,0.6083164,-0.2480481,0.324656,0.6779745
8.025654793,0.6018423,-0.2803557,0.3570238,0.654483
8.058430672,0.5927283,-0.3118428,0.3850133,0.632313
8.093728066,0.5850026,-0.3368097,0.4015631,0.6162028
8.126504898,0.577062,-0.3570955,0.4153715,0.6029732
8.159281254,0.5728468,-0.369543,0.4219222,0.5948898
8.192057609,0.5701544,-0.377955,0.4255479,0.5895854
8.227355480,0.569689,-0.3821329,0.4256139,0.5872899
8.260131836,0.5712626,-0.3825694,0.4233583,0.5871075
8.292908192,0.5722772,-0.3837655,0.42278,0.585754
8.325684547,0.5734816,-0.3851791,0.4227826,0.5836425
8.358460903,0.5747788,-0.3865998,0.4225492,0.5815926
8.393758774,0.5760735,-0.3879324,0.4215431,0.5801525
8.426535129,0.5775807,-0.3883601,0.4193328,0.5799695
8.459311485,0.5790633,-0.3884678,0.4170059,0.5800967
8.492087364,0.5798028,-0.3893168,0.4160432,0.57948
8.527385235,0.5809082,-0.3899843,0.4145589,0.5789876
8.560161590,0.582119,-0.3901747,0.4125328,0.5790904
8.592937946,0.5827863,-0.3909443,0.4110021,0.5789886
8.625714302,0.5835623,-0.3915359,0.4091083,0.5791485
8.658490658,0.5851631,-0.3911042,0.406462,0.5796878
8.693788528,0.5864966,-0.3914794,0.4051552,0.5790015
8.726564884,0.5874053,-0.3923908,0.4050356,0.5775452
8.759341240,0.5884557,-0.3930326,0.4047725,0.5762225
8.792117596,0.5891029,-0.3943324,0.4051703,0.5743906
8.827415466,0.5891949,-0.3965365,0.4061414,0.5720884
8.860191822,0.5897846,-0.397788,0.4059535,0.5707437
8.892967701,0.5904441,-0.3989457,0.405581,0.5695173
8.925744057,0.5906025,-0.4005214,0.4059519,0.5679806
8.958520412,0.5909729,-0.4018122,0.405987,0.5666569
8.993818283,0.5917565,-0.4027072,0.4056067,0.565475
9.026594639,0.5922197,-0.4040268,0.4056784,0.5639957
9.059370995,0.5929196,-0.4049044,0.4054262,0.5628108
9.092147350,0.5936588,-0.4056666,0.4050353,0.5617631
9.127445221,0.5947436,-0.4060871,0.4040247,0.5610393
9.160221576,0.5954002,-0.4068376,0.4035608,0.5601323
9.192997932,0.5961341,-0.4073468,0.4027011,0.5596002
9.225774765,0.5972154,-0.4072953,0.4013753,0.559437
9.258551121,0.5976688,-0.4079244,0.4007385,0.5589509
9.293848038,0.5986552,-0.4080377,0.3994869,0.5587085
9.326624393,0.599579,-0.408187,0.3982089,0.558521
9.359400749,0.600774,-0.4079605,0.3965228,0.5586019
9.392177105,0.6020145,-0.4076554,0.3946252,0.5588328
9.427474975,0.602349,-0.4083363,0.3932756,0.5589268
9.460251331,0.6029485,-0.407864,0.3900406,0.5608887
9.493027687,0.603951,-0.4070307,0.3857773,0.5633586
9.525804520,0.6035777,-0.4078223,0.3812901,0.5662336
9.558580875,0.6038492,-0.4080082,0.374677,0.5702107
9.593878269,0.603305,-0.4118234,0.3666254,0.5732696
9.626655102,0.6037349,-0.4209499,0.3596803,0.5705814
9.659431457,0.6033355,-0.433435,0.3552537,0.564396
9.692207813,0.6069263,-0.4424153,0.3451055,0.5598564
9.727504730,0.6141651,-0.4366791,0.3214573,0.570443
9.760281086,0.6211407,-0.4248456,0.2891755,0.5888086
9.793057442,0.6346425,-0.3910232,0.2344243,0.621291
9.825834274,0.6519903,-0.3347842,0.1524063,0.6604756
9.858610630,0.6497909,-0.3020036,0.08215895,0.6902485
9.893908024,0.6240063,-0.3031859,0.03375883,0.7170651
9.926684856,0.5837817,-0.3213,-0.006309787,0.7433391
9.959461212,0.526236,-0.3556155,-0.02078668,0.7699409
9.992237568,0.4691219,-0.3812554,-0.04331224,0.7932973
10.025013924,0.41167,-0.4034152,-0.07263984,0.8118713
10.060311794,0.3621848,-0.4192698,-0.1011506,0.8242761
10.093087673,0.3197972,-0.4356811,-0.1334603,0.8286902
10.125864029,0.2718942,-0.4695683,-0.1227781,0.8289344
10.158640384,0.2393893,-0.5056283,-0.1008602,0.8206629
10.193938255,0.2297613,-0.5325379,-0.05434543,0.8107326
10.259490967,0.2588001,-0.5639331,-0.06496623,0.7793644
10.292267322,0.2711167,-0.5801442,-0.06366418,0.7632188
10.325043678,0.2746491,-0.5975623,-0.0689269,0.7479063
10.360341549,0.2833556,-0.6159471,-0.06777301,0.7296253
10.393117905,0.2935496,-0.6321571,-0.07529311,0.7107493
10.425894260,0.3041137,-0.6478536,-0.07950585,0.6914529
10.458670616,0.3155445,-0.6607646,-0.08655227,0.6730217
10.493968010,0.3249327,-0.6719365,-0.09268294,0.6564737
10.526744366,0.3327594,-0.679151,-0.0930857,0.6449711
10.559520721,0.3384866,-0.6824734,-0.0933432,0.6384134
10.592297077,0.3439168,-0.6836671,-0.09298943,0.6342723
10.625073433,0.3487901,-0.6816499,-0.09101989,0.6340677
10.660371303,0.353032,-0.6776542,-0.08926002,0.6362497
10.693147659,0.3555517,-0.6750016,-0.08985812,0.6375807
10.725924015,0.3553783,-0.6748042,-0.09267019,0.6374838
10.758700371,0.353552,-0.6765088,-0.09527604,0.6363073
10.793998241,0.3480444,-0.6802148,-0.1008758,0.6345271
10.826774597,0.3421643,-0.6829564,-0.1061775,0.6339149
10.859550953,0.3349649,-0.6858754,-0.1141935,0.6332148
10.892327309,0.327365,-0.687609,-0.1211421,0.6340176
10.925103188,0.3198137,-0.688632,-0.1293651,0.6351358
10.960401058,0.3126872,-0.6886417,-0.136732,0.6371275
10.993177414,0.3071586,-0.6872982,-0.1418775,0.6401353
11.025953770,0.3039899,-0.6849725,-0.14576,0.643261
11.058730125,0.3035332,-0.6815659,-0.1470359,0.646795
11.094027996,0.3055048,-0.6765485,-0.147691,0.6509718
11.126804352,0.3084473,-0.6717039,-0.144704,0.6552576
11.159580707,0.312463,-0.6664103,-0.1413706,0.6594742
11.192357063,0.3211049,-0.6600803,-0.137604,0.662479
11.225133896,0.3293351,-0.6552276,-0.1306286,0.6646644
11.260430813,0.3392693,-0.6503543,-0.1250279,0.6655309
11.293207168,0.3512192,-0.644555,-0.1149741,0.6667853
11.325983524,0.3651842,-0.636461,-0.1104304,0.6678253
11.358759880,0.3781725,-0.6283863,-0.1004053,0.669823
11.394057751,0.3918596,-0.6178816,-0.09560898,0.6724248
11.426834106,0.4034741,-0.6069081,-0.09226853,0.6760069
11.459610462,0.4111444,-0.5976137,-0.08660663,0.6804008
11.492387295,0.4181814,-0.5891995,-0.08186041,0.6840284
11.525163650,0.4243389,-0.5807895,-0.07604988,0.6880873
11.560461044,0.4282385,-0.5724529,-0.07526117,0.6927286
11.593237877,0.4310986,-0.5657194,-0.0753235,0.6964694
11.626013279,0.4329034,-0.5597116,-0.07885623,0.699805
11.658789635,0.4333131,-0.5559645,-0.08107646,0.7022802
11.694087505,0.433727,-0.5504286,-0.08670295,0.7057051
11.726863861,0.4330517,-0.5441726,-0.09308343,0.7101449
11.759640217,0.434483,-0.5354729,-0.1012138,0.7147565
11.792417049,0.4326604,-0.5256274,-0.1084863,0.722066
11.825193405,0.4317736,-0.5154778,-0.1172937,0.728508
11.860490799,0.4298889,-0.5032398,-0.1281815,0.7363032
11.893267632,0.4279934,-0.489838,-0.1407708,0.7441046
11.926043987,0.4260679,-0.4761673,-0.1562176,0.7509691
11.958820343,0.4241796,-0.4602181,-0.1741728,0.7579989
11.994117260,0.4231032,-0.4393169,-0.1958898,0.7656626
12.026893616,0.4238272,-0.4199633,-0.2179963,0.7701341
12.059669971,0.4278348,-0.4034373,-0.2408749,0.7699368
12.092446804,0.4337644,-0.3943203,-0.2456641,0.7698291
12.125223160,0.4399894,-0.3907074,-0.2444403,0.768527
12.160520553,0.4318977,-0.4083497,-0.2059015,0.7752077
12.193297386,0.4210679,-0.4347244,-0.1546635,0.7787319
12.226073742,0.4263423,-0.4524974,-0.1182902,0.7720838
12.258850097,0.4441451,-0.4598567,-0.1026873,0.7598355
12.294147968,0.4457081,-0.4777852,-0.07504013,0.7510408
12.326923370,0.4278925,-0.5111874,-0.02822973,0.7425808
