Time (s),W,X,Y,Z
0.039599895,-0.5907058,-0.4782832,-0.00858558,-0.6471984
0.071776390,-0.6022832,-0.4737333,-0.009631446,-0.6398178
0.106428623,-0.6253247,-0.4607437,-0.01848691,-0.6268731
0.138605118,-0.6559133,-0.4416125,-0.0300011,-0.6086738
0.173256397,-0.6900213,-0.4218868,-0.03080439,-0.5844322
0.205428600,-0.7289231,-0.40098,-0.02852386,-0.5510899
0.240080833,-0.7782478,-0.3647372,-0.01833438,-0.5075318
0.272257328,-0.8157928,-0.3300008,0.01427095,-0.4711744
0.306909084,-0.8471647,-0.3007182,0.04876054,-0.4314286
0.339085579,-0.8792687,-0.2452076,0.07565995,-0.3970679
0.371261597,-0.9014804,-0.1702123,0.1083115,-0.3784932
0.405909538,-0.9115777,-0.1059627,0.1518247,-0.3624567
0.438174725,-0.9073411,-0.08278373,0.1925714,-0.3597537
0.472826004,-0.908905,-0.04003225,0.1693522,-0.3744816
0.505002499,-0.9094993,-0.01568544,0.1489006,-0.3834333
0.539654255,-0.9067827,-0.03651423,0.1621414,-0.3830794
0.571830750,-0.9055933,-0.035172,0.1662236,-0.3842668
0.606478214,-0.9042708,-0.02587708,0.1597036,-0.3908287
0.638654709,-0.9025998,-0.03802877,0.1641078,-0.3918723
0.673306465,-0.9013609,-0.05699823,0.1706862,-0.389607
0.705482960,-0.9010747,-0.0737585,0.1730589,-0.3863966
0.740134716,-0.9016027,-0.08881576,0.1731994,-0.3819082
0.772311211,-0.9020214,-0.1001057,0.1731438,-0.3781337
0.806958676,-0.9026297,-0.1076183,0.1724586,-0.3749182
0.839135170,-0.9032413,-0.1103963,0.1716374,-0.3730098
0.871311665,-0.9034125,-0.1159927,0.172337,-0.3705662
0.905963421,-0.9033554,-0.1214922,0.1741419,-0.3680911
0.938139915,-0.9032192,-0.1246098,0.1761792,-0.3664097
0.972791195,-0.9032099,-0.1247997,0.1771754,-0.3658873
1.004963875,-0.9029796,-0.1241103,0.1777481,-0.3664121
1.039615631,-0.9024525,-0.1250209,0.1783255,-0.3671196
1.071792126,-0.9020682,-0.1259787,0.1784413,-0.3676803
1.106444359,-0.9016238,-0.1276257,0.1787254,-0.3680641
1.138620853,-0.901158,-0.1290268,0.1792864,-0.3684435
1.173272133,-0.9010187,-0.1277205,0.1790455,-0.369355
1.205444336,-0.9008387,-0.1265106,0.1791949,-0.3701371
1.240096092,-0.9005882,-0.1248684,0.1794825,-0.3711639
1.272273064,-0.9003079,-0.1241394,0.1798021,-0.3719327
1.306923866,-0.8999332,-0.1242535,0.1805319,-0.3724476
1.339100838,-0.8996332,-0.1251909,0.1811509,-0.3725579
1.371277332,-0.8996014,-0.1250025,0.1811015,-0.3727218
1.405925274,-0.8995973,-0.1242136,0.180912,-0.3730872
1.438101769,-0.899605,-0.1236904,0.180865,-0.3732652
1.472752571,-0.8995832,-0.1234088,0.181033,-0.3733296
1.504929543,-0.8995387,-0.1228038,0.1811568,-0.3735762
1.539581299,-0.8994625,-0.1220167,0.1813751,-0.3739119
1.571757794,-0.8994008,-0.1215421,0.1815255,-0.3741417
1.606404781,-0.8993984,-0.1214229,0.1815865,-0.3741564
1.638581753,-0.899421,-0.1214755,0.1814559,-0.3741482
1.673233509,-0.8994704,-0.121425,0.1810886,-0.374224
1.705410004,-0.8993771,-0.1219608,0.1810673,-0.3742841
1.740061760,-0.8992331,-0.1224179,0.1810321,-0.3744979
1.772238255,-0.8991931,-0.1223166,0.1807227,-0.3747764
1.806885719,-0.8991845,-0.1221033,0.1803248,-0.3750586
1.839062214,-0.8992245,-0.1216466,0.179852,-0.3753377
1.871238709,-0.8991923,-0.1215063,0.1794902,-0.3756333
1.905890465,-0.8990611,-0.1220756,0.179195,-0.3759037
1.938066959,-0.8990029,-0.1227204,0.178999,-0.3759264
1.972718239,-0.8989872,-0.1235954,0.1789201,-0.3757146
2.004890919,-0.8990464,-0.1238924,0.1785973,-0.3756287
2.039542675,-0.8990594,-0.1238634,0.1781318,-0.3758283
2.071719170,-0.8988824,-0.1242861,0.1780345,-0.3761581
2.106370449,-0.8987068,-0.1246875,0.1777878,-0.3765611
2.138546944,-0.8984897,-0.1255234,0.1778525,-0.3767709
2.173198700,-0.8982398,-0.126697,0.1781975,-0.3768112
2.205371380,-0.8981527,-0.126996,0.1782118,-0.3769111
2.240022659,-0.8980322,-0.1270583,0.1781734,-0.3771953
2.272199154,-0.8979192,-0.1271036,0.178055,-0.3775051
2.306850910,-0.8977964,-0.127104,0.17788,-0.3778791
2.339027405,-0.8976379,-0.1278524,0.1778933,-0.3779968
2.371204376,-0.8976181,-0.1281268,0.1778613,-0.377966
2.405851364,-0.8976001,-0.1281672,0.1779036,-0.3779754
2.438027859,-0.8976009,-0.1282973,0.1779346,-0.3779143
2.472679615,-0.8976233,-0.1275818,0.177854,-0.3781415
2.504856587,-0.8975793,-0.1266539,0.1776872,-0.378636
2.539507389,-0.8974487,-0.1260066,0.1776459,-0.3791804
2.571683884,-0.8973495,-0.1259331,0.1776476,-0.3794388
2.606331825,-0.897209,-0.1268429,0.1779717,-0.3793162
2.638508320,-0.8971976,-0.1272502,0.1781407,-0.3791271
2.673159599,-0.8973655,-0.1261438,0.1777632,-0.3792768
2.705336094,-0.8973674,-0.1255374,0.1776972,-0.3795044
2.739988327,-0.8973088,-0.1251281,0.1777402,-0.3797576
2.772164822,-0.897265,-0.1251955,0.17779,-0.3798158
2.806811810,-0.8972883,-0.1250618,0.1777112,-0.3798416
2.838988304,-0.8972498,-0.1249894,0.1777987,-0.3799157
2.871164799,-0.897282,-0.1247643,0.1778336,-0.3798972
2.905817032,-0.8973992,-0.1238272,0.1776687,-0.3800039
2.937993526,-0.8973694,-0.1232295,0.1777604,-0.3802254
2.972644806,-0.8973209,-0.1231033,0.1778925,-0.3803194
3.004817009,-0.8973091,-0.1225876,0.1778069,-0.3805539
3.039469242,-0.8972678,-0.1221966,0.1777723,-0.3807928
3.071645737,-0.8972959,-0.1220664,0.1779866,-0.380668
3.106297016,-0.8973608,-0.1215832,0.1782148,-0.3805631
3.138473511,-0.8974292,-0.1211274,0.1784215,-0.3804505
3.173125267,-0.8974181,-0.1204497,0.1785619,-0.3806258
3.205297947,-0.8973386,-0.1197715,0.1787342,-0.3809461
3.239949226,-0.8972701,-0.1187738,0.1786709,-0.3814495
3.272125721,-0.8971637,-0.118748,0.1789723,-0.3815662
3.306777477,-0.8970587,-0.1189851,0.1793455,-0.3815643
3.338953972,-0.897054,-0.1182746,0.1793072,-0.3818138
3.371129990,-0.8970485,-0.1177594,0.17932,-0.38198
3.405777931,-0.896969,-0.1176592,0.1794097,-0.3821557
3.437954426,-0.8968759,-0.1173862,0.1795383,-0.3823974
3.472606182,-0.8968851,-0.1173419,0.179616,-0.3823532
3.504782200,-0.8968948,-0.1174737,0.179764,-0.38222
3.539433956,-0.8969697,-0.117295,0.17975,-0.3821059
3.571610451,-0.8969936,-0.1169782,0.1797083,-0.3821667
3.606257439,-0.8969676,-0.1168283,0.1796568,-0.3822976
3.638434410,-0.8969522,-0.1167632,0.17956,-0.3823988
3.673086167,-0.8969808,-0.1165499,0.1794299,-0.3824581
3.705262661,-0.8969033,-0.1168868,0.1795865,-0.3824637
3.739913941,-0.896908,-0.1171846,0.1795502,-0.3823784
3.772090435,-0.8971148,-0.1166272,0.1791909,-0.3822324
3.806738377,-0.8971753,-0.1168137,0.1791051,-0.3820738
3.838914871,-0.8973049,-0.1167932,0.1788834,-0.3818793
3.873566151,-0.8975319,-0.1166989,0.1787266,-0.3814476
3.905742645,-0.8975042,-0.1174374,0.1794402,-0.3809512
3.937919140,-0.8969656,-0.1210843,0.1814,-0.3801489
3.972570896,-0.8971139,-0.123249,0.1805149,-0.3795241
4.004743576,-0.8981617,-0.1207684,0.1753379,-0.3802696
4.039394856,-0.8987808,-0.1207615,0.1696219,-0.3813999
4.071571350,-0.8986498,-0.1224243,0.1657628,-0.3828725
4.106223106,-0.8982556,-0.1263417,0.1650552,-0.3828303
4.138399124,-0.8980292,-0.1273237,0.1656004,-0.3828007
4.173050880,-0.8969222,-0.1317504,0.1656308,-0.3838832
4.205223560,-0.8885912,-0.1753292,0.1766924,-0.3808842
4.239875317,-0.8458005,-0.3222884,0.2082465,-0.3660768
4.272051334,-0.7777141,-0.4616528,0.2170756,-0.3626886
4.306703091,-0.7201054,-0.5400561,0.1897651,-0.38782
4.338879585,-0.6826102,-0.5740281,0.1408771,-0.4258125
4.373530865,-0.6588058,-0.5815969,0.07375483,-0.4678758
4.405703545,-0.6536935,-0.5649431,-0.001728056,-0.5001488
4.437880039,-0.6510327,-0.5416248,-0.08000906,-0.5225179
4.472531796,-0.6338308,-0.5313983,-0.1391268,-0.5414292
4.504708290,-0.6129823,-0.5302802,-0.1736927,-0.5563398
4.539359570,-0.593904,-0.5302019,-0.1948504,-0.5699344
4.571536064,-0.5794492,-0.5298445,-0.1972405,-0.5841466
4.606184006,-0.5646665,-0.5245977,-0.1784099,-0.6088896
4.638360024,-0.5401191,-0.5200407,-0.1345452,-0.6452551
4.673011780,-0.5060922,-0.5090461,-0.06389958,-0.6908596
4.705188275,-0.4926801,-0.524852,-0.04357765,-0.6903081
4.739839554,-0.499755,-0.5116016,-0.0688092,-0.6931101
4.772016049,-0.5311635,-0.4801562,-0.09215402,-0.6895292
4.806663990,-0.5519617,-0.47369,-0.1077739,-0.6752544
4.838840485,-0.5741197,-0.4825928,-0.09177313,-0.6524539
4.873491764,-0.6241278,-0.4746472,-0.09672397,-0.610284
4.905668259,-0.6975554,-0.4317811,-0.1278593,-0.5543114
4.937844753,-0.7632582,-0.3773251,-0.1326085,-0.5040884
4.972496510,-0.8094885,-0.3400918,-0.08482533,-0.4674377
5.004668713,-0.8345979,-0.3318364,-0.007882518,-0.4357709
5.039320469,-0.8578362,-0.3180507,0.07890499,-0.391615
5.071496964,-0.8722981,-0.280382,0.1600994,-0.3625985
5.106148243,-0.8746794,-0.2340607,0.2132724,-0.362345
5.138324738,-0.8752139,-0.2259313,0.2052939,-0.370726
5.172976494,-0.8717338,-0.2552887,0.1836536,-0.3712234
5.205149174,-0.8635213,-0.2906678,0.1912817,-0.3603919
5.239800453,-0.8680719,-0.2766812,0.1968897,-0.3574362
5.271976948,-0.880726,-0.2364407,0.1862333,-0.3610571
5.306628704,-0.8902401,-0.2096135,0.1707695,-0.3619393
5.338804722,-0.8892669,-0.2230857,0.1707088,-0.356263
5.373456478,-0.880884,-0.2516617,0.1863968,-0.3501337
5.405629158,-0.8747486,-0.2663928,0.1972359,-0.3486767
5.437916279,-0.8750435,-0.2610095,0.1979242,-0.3516057
5.472568035,-0.8767576,-0.2526571,0.1973258,-0.3537665
5.504744530,-0.8734927,-0.264944,0.2049137,-0.3485015
5.539395809,-0.8703544,-0.2809455,0.2129541,-0.3388675
5.571572304,-0.8727044,-0.2756895,0.2147618,-0.335987
5.606219769,-0.8757964,-0.2631601,0.2159292,-0.3372383
5.638396263,-0.8737788,-0.2662672,0.2225441,-0.3357295
5.673048020,-0.8687463,-0.2808527,0.2331944,-0.3296205
5.705224514,-0.8664215,-0.2881899,0.2399099,-0.3245476
5.739875794,-0.8656185,-0.2876933,0.2460482,-0.3225295
5.772052288,-0.8654691,-0.2842749,0.2510387,-0.3221152
5.806700230,-0.8647946,-0.2804441,0.2574683,-0.3222095
5.838876248,-0.8636035,-0.2778589,0.2641442,-0.3222405
5.873528004,-0.8617752,-0.2743922,0.2720131,-0.3235569
5.905704498,-0.8596978,-0.270382,0.2790919,-0.3264182
5.937880993,-0.8583632,-0.2653534,0.2842228,-0.3296137
5.972532272,-0.8576774,-0.2602685,0.2885916,-0.331651
6.004704952,-0.8578591,-0.2555243,0.2916051,-0.3322336
6.039356709,-0.85743,-0.2544619,0.2957045,-0.3305289
6.071532726,-0.8561389,-0.2573564,0.300901,-0.3269253
6.106184483,-0.8552482,-0.2565513,0.3058727,-0.3252714
6.138360977,-0.8544701,-0.2529002,0.3102733,-0.326007
6.173012257,-0.8527355,-0.2520389,0.3164694,-0.3252593
6.205184937,-0.8513493,-0.2517186,0.3219424,-0.3237638
6.239836693,-0.8504493,-0.2514018,0.3273788,-0.3209113
6.272013187,-0.8502871,-0.250053,0.3319753,-0.3176563
6.306664467,-0.8503281,-0.2471772,0.3366656,-0.3148483
6.338840962,-0.850171,-0.2439331,0.3414701,-0.312621
6.373492241,-0.8491164,-0.2423548,0.3490647,-0.308297
6.405664921,-0.8471134,-0.2419424,0.3580869,-0.3037504
6.437841416,-0.8447846,-0.2406915,0.3675352,-0.2999201
6.472493172,-0.8414563,-0.2389162,0.3793254,-0.2959903
6.504669190,-0.8375229,-0.2367916,0.3916718,-0.292756
6.539320946,-0.830677,-0.2387938,0.4089011,-0.2870205
6.571497440,-0.8239729,-0.2370908,0.42674,-0.2817399
6.606144428,-0.8176687,-0.2278959,0.4447827,-0.279781
6.638321400,-0.8096664,-0.2224645,0.4643972,-0.275523
6.672973156,-0.8003071,-0.219207,0.4868637,-0.2665485
6.705149651,-0.7910808,-0.220051,0.5069989,-0.2556337
6.739800930,-0.7808725,-0.2205571,0.5270053,-0.2459385
6.771977425,-0.7731126,-0.2134343,0.5438661,-0.2399586
6.806624413,-0.7633496,-0.213265,0.5625965,-0.2278776
6.838800907,-0.7556776,-0.2068961,0.5780313,-0.2205741
6.873453140,-0.7464815,-0.2033714,0.5946294,-0.2108294
6.905629635,-0.738625,-0.2015018,0.6076761,-0.2029469
6.940280914,-0.7326688,-0.1967772,0.618055,-0.1977639
6.972457409,-0.7287871,-0.1925751,0.625819,-0.1917354
7.004630089,-0.7262495,-0.1905937,0.6321521,-0.1823375
7.039280891,-0.7249996,-0.1881872,0.6378354,-0.1695724
7.071457386,-0.7242017,-0.1859464,0.6437065,-0.1523993
7.106109619,-0.7233462,-0.1850366,0.6498862,-0.1296428
7.138285160,-0.7216988,-0.1881948,0.6552464,-0.1049446
7.172937393,-0.7192495,-0.195265,0.6594443,-0.0794524
7.205109596,-0.7187409,-0.1944244,0.6617086,-0.06618207
7.239760876,-0.7213272,-0.1799946,0.6631501,-0.06440984
7.271937370,-0.7261937,-0.1618097,0.6623145,-0.06653963
7.306589603,-0.7323027,-0.1435271,0.6595873,-0.06859389
7.338765144,-0.7395611,-0.1318275,0.653573,-0.07170006
7.373417378,-0.7522303,-0.1152894,0.640406,-0.08582342
7.405589581,-0.7684555,-0.09530763,0.6208822,-0.1073574
7.440240860,-0.786817,-0.08084316,0.5963867,-0.1238303
7.472417355,-0.8026896,-0.08579903,0.5740057,-0.1243908
7.504593849,-0.8176547,-0.1052331,0.5507727,-0.1168072
7.539245129,-0.8323401,-0.1313162,0.5243036,-0.1081634
7.571421623,-0.845535,-0.1506333,0.4981573,-0.1041499
7.606069565,-0.8588274,-0.1632619,0.4708958,-0.1031783
7.638245583,-0.8699814,-0.1667927,0.4485977,-0.1034428
7.672897339,-0.8796039,-0.1693842,0.428911,-0.1013371
7.705073834,-0.8849124,-0.1751705,0.4169806,-0.09486945
7.739725113,-0.8858216,-0.1879245,0.4119661,-0.08316289
7.771901608,-0.8840415,-0.1985145,0.4128773,-0.07226848
7.806549072,-0.8831007,-0.1973346,0.4165823,-0.06541413
7.838725567,-0.8842547,-0.1817891,0.4214451,-0.06370328
7.873377323,-0.8852094,-0.1554133,0.4300655,-0.06262787
7.905553818,-0.8829989,-0.1302592,0.4434145,-0.05793706
7.940205097,-0.8775061,-0.1108539,0.4606719,-0.04586262
7.972381592,-0.870633,-0.0964594,0.4778688,-0.0310293
8.004554272,-0.863381,-0.08354557,0.4939269,-0.01604281
8.039205551,-0.8551601,-0.07013563,0.5102984,-0.002343798
8.071382046,-0.8465621,-0.05219192,0.5264962,0.006171305
8.106033802,-0.8370913,-0.03280381,0.5428252,0.0130687
8.138209820,-0.828334,-0.01920072,0.5565078,0.0205166
8.172861576,-0.8196496,-0.01017243,0.5690039,0.03055033
8.205034256,-0.8127412,-0.006895701,0.5781673,0.0418859
8.239685535,-0.8069166,-0.007755836,0.5850326,0.05647982
8.271862030,-0.8029629,-0.01145136,0.5888402,0.07081228
8.306513310,-0.8003978,-0.01579528,0.5905114,0.08389149
8.338689804,-0.7996058,-0.01927836,0.5903212,0.09169228
8.373341560,-0.8005843,-0.02029882,0.5886379,0.09373199
8.405513287,-0.8032916,-0.02112631,0.5851558,0.09217769
8.440165043,-0.8076555,-0.02788845,0.5789778,0.09125274
8.472342014,-0.8109248,-0.04020481,0.5735055,0.09221496
8.504518509,-0.8117229,-0.05391741,0.5709315,0.0941472
8.539169788,-0.8140592,-0.07126268,0.5655088,0.09516747
8.571346283,-0.8177006,-0.08267728,0.5599057,0.08754151
8.605993271,-0.8230672,-0.08372309,0.5545335,0.06834587
8.638169766,-0.8301023,-0.0841112,0.546147,0.04697444
8.704997540,-0.842635,-0.1045954,0.524911,0.01105865
8.739649296,-0.8438787,-0.1305295,0.5171558,0.002873652
8.771826267,-0.8406628,-0.1603307,0.5140095,0.001390807
8.806473255,-0.8340543,-0.1928055,0.513615,0.002581302
8.838649750,-0.8286308,-0.2141051,0.5139623,0.0005841102
8.873301029,-0.8270287,-0.2200685,0.5139472,-0.008910879
8.905477524,-0.8294553,-0.210977,0.5134097,-0.02304099
8.940128803,-0.8328959,-0.1945934,0.513343,-0.03904632
8.972305298,-0.8340594,-0.1812164,0.5153358,-0.05061948
9.004477978,-0.8325441,-0.1718233,0.5202467,-0.0576032
9.071305752,-0.8246642,-0.1583863,0.5362121,-0.06282511
9.105957508,-0.8202116,-0.1521161,0.5447016,-0.0635717
9.138134003,-0.8172668,-0.1434298,0.5512666,-0.06508124
9.172785282,-0.8158101,-0.1323757,0.5559198,-0.06716522
9.204957962,-0.8158455,-0.1220849,0.5579908,-0.06903177
9.239608765,-0.8171604,-0.1092748,0.5583581,-0.07191535
9.271785736,-0.8195829,-0.09691199,0.5566987,-0.07487401
9.306436539,-0.8229069,-0.08509748,0.5535876,-0.07583548
9.338613510,-0.8242489,-0.07808711,0.5534312,-0.06969734
9.373265267,-0.8233192,-0.07986906,0.5562341,-0.05475153
9.405436993,-0.8223723,-0.08547307,0.5578815,-0.0423559
9.440088749,-0.8228398,-0.08672383,0.5573131,-0.03799218
9.472265244,-0.825354,-0.08182892,0.5540532,-0.04180231
9.504441261,-0.8295595,-0.07801581,0.5479295,-0.04632095
9.539093018,-0.833169,-0.08168742,0.5417697,-0.04764133
9.571269989,-0.835368,-0.09039009,0.5370431,-0.04692768
9.605916977,-0.8365871,-0.1022622,0.5330968,-0.04582523
9.638093472,-0.8361053,-0.1131302,0.5316404,-0.04599597
9.672744751,-0.8356924,-0.1216592,0.5300659,-0.04975074
9.704921246,-0.8377849,-0.1242722,0.5252815,-0.05813701
9.739572525,-0.8417798,-0.1247356,0.5176222,-0.06739854
9.771749020,-0.844312,-0.1344104,0.5109466,-0.06806174
9.806396961,-0.8427842,-0.1587944,0.5076655,-0.05832981
9.838572979,-0.8385072,-0.1842194,0.5074609,-0.0456071
9.873224735,-0.8340895,-0.2036756,0.5081144,-0.03547372
9.905401230,-0.8309051,-0.2148712,0.5090704,-0.03003423
9.940052509,-0.8268974,-0.2292175,0.5096918,-0.0232818
9.972229004,-0.8211783,-0.2528826,0.5080489,-0.0151838
10.004401684,-0.8154222,-0.2755917,0.5056195,-0.01060464
10.039052486,-0.8120432,-0.2929799,0.5011941,-0.01344512
10.071229458,-0.8125598,-0.3020822,0.4946021,-0.02212455
10.105880260,-0.814622,-0.3091038,0.4861152,-0.03413958
10.138057232,-0.8157839,-0.3146635,0.479485,-0.04696137
10.172708035,-0.8157077,-0.3189127,0.4748903,-0.06342312
10.204880714,-0.8135023,-0.3234121,0.4726577,-0.08271032
10.239531994,-0.8089169,-0.3310438,0.4702584,-0.1074618
10.271708489,-0.8015212,-0.3490522,0.4639417,-0.130813
10.306360245,-0.7888691,-0.3816709,0.4513385,-0.1579052
10.338536263,-0.77359,-0.4163367,0.4344497,-0.1900088
10.373188019,-0.7546352,-0.4512267,0.4111404,-0.2334766
10.405360699,-0.7413066,-0.4672307,0.3833174,-0.2861034
10.440011978,-0.735526,-0.4608492,0.3430892,-0.3543118
10.472188473,-0.733636,-0.443031,0.2924069,-0.4202706
10.506839752,-0.7227736,-0.4260102,0.2370831,-0.4863464
10.539016247,-0.7096602,-0.4011163,0.1900212,-0.5440658
10.571192742,-0.705085,-0.3598675,0.1380465,-0.5923859
10.605840206,-0.696701,-0.3064649,0.0917546,-0.6394494
10.638016701,-0.6892283,-0.262778,0.07704157,-0.6682845
10.672667504,-0.6938616,-0.2344036,0.07980169,-0.673699
10.704844475,-0.6638164,-0.3046165,0.1723097,-0.6584019
10.739495278,-0.6004168,-0.3760954,0.328362,-0.6219785
10.771672249,-0.4104258,-0.5828286,0.4427684,-0.540782
10.806319237,-0.291587,-0.6512979,0.4814522,-0.5055881
10.838495732,-0.252581,-0.6830682,0.4861464,-0.4794895
10.873147488,-0.2777479,-0.6773852,0.4803057,-0.4795199
10.905323505,-0.3389123,-0.6523707,0.4344692,-0.5171218
10.939975262,-0.3791584,-0.6285111,0.3953398,-0.5491328
10.972151279,-0.3341732,-0.6534624,0.4187855,-0.5315653
11.006799221,-0.3278985,-0.6645279,0.4310925,-0.511539
11.038975716,-0.3144344,-0.6772721,0.4536241,-0.4829972
11.071151733,-0.2837102,-0.6978033,0.4904127,-0.4343985
11.105803490,-0.2541291,-0.7144781,0.5305126,-0.3743306
11.137979507,-0.2586998,-0.7176005,0.5462106,-0.3411822
11.172631264,-0.2557535,-0.720462,0.5637476,-0.3071496
11.204803944,-0.2553231,-0.7201523,0.5765461,-0.2835722
11.239455223,-0.2575387,-0.718475,0.5865119,-0.2647622
11.271631718,-0.2616305,-0.7158328,0.5918801,-0.2558096
11.306282520,-0.2673499,-0.7129055,0.59465,-0.2516123
11.338459492,-0.2739143,-0.7106889,0.5941614,-0.2519764
11.373110294,-0.2830718,-0.7089045,0.590914,-0.2545052
11.405282974,-0.2913374,-0.7078035,0.5865589,-0.258289
11.439934254,-0.2981476,-0.7069899,0.581975,-0.2630707
11.472110748,-0.30385,-0.7089189,0.5747992,-0.2671007
11.506762028,-0.3113346,-0.7110998,0.5664456,-0.2705088
11.538938522,-0.3178741,-0.7123562,0.5602339,-0.2725262
11.571115017,-0.3219643,-0.7141113,0.554857,-0.2741266
11.605762482,-0.3266633,-0.7152047,0.550159,-0.2751839
11.637938976,-0.3307112,-0.715947,0.5468845,-0.2749457
11.672590256,-0.3330338,-0.7178051,0.5444424,-0.2721296
11.704766750,-0.3333712,-0.7206363,0.5420285,-0.269035
11.739418030,-0.3332051,-0.7239578,0.5391757,-0.2660391
11.771594525,-0.3320901,-0.7275619,0.536081,-0.2638459
11.806241512,-0.3304926,-0.7314815,0.5327461,-0.2617611
11.838418007,-0.3292113,-0.734938,0.5296941,-0.2598804
11.873069763,-0.3279181,-0.7386246,0.5260633,-0.258435
11.905245781,-0.327045,-0.7418034,0.522679,-0.257301
11.939897537,-0.3264784,-0.7449722,0.5190493,-0.2562103
11.972073555,-0.3265156,-0.747601,0.5157285,-0.25521
12.006721497,-0.3279096,-0.7498209,0.5118999,-0.2546176
12.038897514,-0.3301581,-0.7514207,0.5082456,-0.2543162
12.071074009,-0.3322601,-0.7528557,0.5050297,-0.2537403
12.105725288,-0.3340141,-0.7544208,0.5018523,-0.2530926
12.137901783,-0.3354404,-0.7559725,0.4987934,-0.2526227
