Time (s),Percentage (%),Time To Empty (minutes),Voltage (V),Current (mA),Is Charger Connected (Boolean)
0.835378170,70.75,117.84375,3.895625,256.875,0
1.714244842,70.73828,117.84375,3.89625,266.25,0
2.769012928,70.72656,117.9375,3.8975,259.6875,0
3.824615955,70.71484,117.84375,3.89625,256.875,0
4.702874660,70.70313,117.84375,3.89625,274.375,0
5.757748127,70.70313,118.03125,3.893125,270.9375,0
6.812386513,70.6875,117.84375,3.896875,260.625,0
7.691507816,70.67578,117.46875,3.89875,256.875,0
8.746449947,70.66406,117.46875,3.89625,271.5625,0
9.801160812,70.65234,117.28125,3.8975,257.5,0
10.680121899,70.65234,117.46875,3.8975,258.125,0
11.734751224,70.64063,117.75,3.898125,261.25,0
12.789744854,70.62891,117.46875,3.895625,259.0625,0
13.668592930,70.61719,117.375,3.896875,269.0625,0
14.723478317,70.60547,117.28125,3.89625,255.3125,0
15.778461933,70.58984,117.28125,3.894375,266.5625,0
16.832935810,70.58984,117.5625,3.89625,265.625,0
17.712430954,70.57813,117.375,3.895,262.8125,0
18.766713142,70.56641,117.5625,3.896875,259.375,0
19.821641922,70.55469,117.65625,3.895625,261.875,0
20.700525284,70.54297,117.375,3.8975,255.9375,0
21.755464077,70.54297,117.46875,3.895625,266.5625,0
22.810206413,70.53125,117.46875,3.894375,254.0625,0
23.689221859,70.51953,117.46875,3.894375,268.75,0
24.744415283,70.50781,117.5625,3.895625,260,0
25.798675060,70.49219,117.1875,3.89375,294.375,0
26.678231716,70.49219,117.1875,3.896875,267.8125,0
27.732453346,70.48047,117,3.898125,256.5625,0
28.787383556,70.46875,117,3.893125,271.5625,0
29.666266918,70.45703,117,3.896875,267.1875,0
30.721137047,70.44531,117,3.89375,284.0625,0
31.775943279,70.43359,117.28125,3.896875,258.125,0
32.830620289,70.43359,117.09375,3.895625,255.625,0
33.709758282,70.42188,117.09375,3.894375,276.875,0
34.764376163,70.41016,117.1875,3.89625,255.3125,0
35.819394588,70.39453,117.28125,3.89625,258.125,0
36.698172092,70.38281,117.375,3.89625,274.0625,0
37.753126144,70.38281,117.28125,3.895,270.9375,0
38.808085918,70.37109,117.1875,3.895,269.375,0
39.686950684,70.35938,117.28125,3.89375,262.8125,0
40.741908073,70.34766,117.28125,3.894375,262.8125,0
41.796337128,70.33594,116.90625,3.8975,267.8125,0
42.675354958,70.33594,117.09375,3.89625,257.8125,0
43.730187893,70.32422,117.09375,3.895625,256.5625,0
44.785051823,70.3125,117.1875,3.894375,255.9375,0
45.663984775,70.29688,117.1875,3.89375,260.625,0
46.718804836,70.28516,117.09375,3.893125,260.625,0
47.773916721,70.27344,117.1875,3.894375,259.6875,0
48.828278065,70.27344,116.90625,3.895,273.125,0
49.707258701,70.26172,116.90625,3.8925,269.6875,0
50.762074947,70.25,116.71875,3.895,267.1875,0
51.817006588,70.23828,116.8125,3.89125,266.5625,0
52.695856571,70.22656,116.90625,3.89375,264.0625,0
53.750844002,70.22656,116.90625,3.89375,266.875,0
54.806197166,70.21484,117.09375,3.895,252.8125,0
55.684645653,70.19922,116.90625,3.895,252.1875,0
56.739223480,70.1875,116.8125,3.895625,263.75,0
57.794085026,70.17578,116.8125,3.8925,265,0
58.673216343,70.17578,116.625,3.893125,267.1875,0
59.727877140,70.16406,116.625,3.894375,260.9375,0
60.782822609,70.15234,116.53125,3.890625,289.6875,0
61.838180065,70.14063,116.8125,3.89375,249.6875,0
62.716573715,70.12891,116.71875,3.894375,264.375,0
63.771152496,70.11719,116.8125,3.8925,255.9375,0
64.826017857,70.10156,116.4375,3.895625,262.8125,0
65.704967022,70.10156,116.4375,3.89,271.875,0
66.759773254,70.08984,116.71875,3.89375,251.5625,0
67.814724445,70.07813,116.25,3.89375,256.25,0
68.693615913,70.06641,116.4375,3.891875,266.5625,0
69.748492718,70.05469,116.34375,3.893125,257.5,0
70.803119659,70.05469,116.25,3.893125,261.5625,0
71.682282448,70.04297,116.25,3.893125,274.6875,0
72.737080097,70.03125,116.34375,3.8925,257.1875,0
73.791728020,70.01953,116.0625,3.893125,270.9375,0
74.670895576,70.00391,115.96875,3.893125,253.75,0
75.725569725,70.00391,116.25,3.891875,257.8125,0
76.780414581,69.99219,116.25,3.890625,264.0625,0
77.835109711,69.98047,116.34375,3.891875,259.0625,0
78.714255810,69.96875,116.53125,3.890625,264.0625,0
79.769053459,69.95703,116.34375,3.894375,260.625,0
80.823707581,69.95703,116.53125,3.893125,268.75,0
81.703078270,69.94531,116.53125,3.89,279.0625,0
82.757461548,69.93359,116.53125,3.89375,260.625,0
83.812408447,69.92188,116.71875,3.8925,264.0625,0
84.691304684,69.90625,116.625,3.893125,259.375,0
85.746134281,69.90625,116.8125,3.88875,273.75,0
86.801004887,69.89453,116.8125,3.89375,260.3125,0
87.679970741,69.88281,116.8125,3.891875,259.375,0
88.734993458,69.87109,116.8125,3.89125,273.4375,0
89.789364338,69.85938,116.71875,3.88875,267.8125,0
90.669013023,69.85938,116.34375,3.8925,245.625,0
91.723216057,69.84766,116.4375,3.89125,273.125,0
92.778109550,69.83594,116.25,3.89125,275.3125,0
93.832956791,69.82422,116.0625,3.890625,271.25,0
94.711859226,69.80859,116.0625,3.89,270,0
95.766933918,69.79688,116.0625,3.89125,271.5625,0
96.821353435,69.79688,115.96875,3.891875,255,0
97.700962067,69.78516,116.15625,3.8925,260.625,0
98.755194664,69.77344,116.15625,3.89,263.75,0
99.810050487,69.76172,116.15625,3.89125,253.4375,0
100.688941955,69.75,116.15625,3.89125,260.3125,0
101.743874073,69.75,115.96875,3.89125,254.6875,0
102.798510551,69.73828,115.96875,3.889375,262.5,0
103.677633285,69.72656,116.0625,3.890625,269.0625,0
104.732325554,69.71094,115.6875,3.890625,252.8125,0
105.787106991,69.69922,115.6875,3.890625,271.25,0
106.666105270,69.69922,115.6875,3.89125,267.1875,0
107.720888138,69.6875,115.59375,3.889375,270.3125,0
108.775815487,69.67578,115.59375,3.888125,260.9375,0
109.830664158,69.66406,115.40625,3.89125,275.9375,0
110.709576607,69.65234,115.5,3.889375,260.9375,0
111.764438629,69.64063,115.5,3.89125,268.4375,0
112.819062233,69.64063,115.59375,3.89125,252.8125,0
113.698250294,69.62891,115.78125,3.88875,243.75,0
114.752799034,69.61328,115.78125,3.88875,273.75,0
115.807722568,69.60156,115.96875,3.889375,264.0625,0
116.686801910,69.58984,115.5,3.89,274.375,0
117.741539478,69.58984,115.3125,3.89125,260.625,0
118.796617985,69.57813,115.3125,3.889375,265.9375,0
119.675304413,69.56641,115.3125,3.89,265.9375,0
120.730436325,69.55469,115.3125,3.88875,264.6875,0
121.784753799,69.54297,115.3125,3.88875,273.4375,0
122.663734436,69.53125,115.21875,3.89,271.25,0
123.718736648,69.53125,115.40625,3.889375,257.8125,0
124.773510933,69.51563,115.40625,3.8875,270.625,0
125.828758240,69.50391,115.40625,3.8875,273.4375,0
126.707293987,69.49219,115.40625,3.889375,264.6875,0
127.762541294,69.48047,115.6875,3.89,251.875,0
128.816706657,69.48047,115.78125,3.889375,263.4375,0
129.695718288,69.46875,115.875,3.88875,267.8125,0
130.750533581,69.45703,115.6875,3.89,271.5625,0
131.805512428,69.44531,115.6875,3.889375,257.8125,0
132.684390068,69.43359,115.78125,3.888125,258.4375,0
133.739189148,69.43359,115.78125,3.888125,261.875,0
134.794653892,69.41797,115.78125,3.889375,264.375,0
135.672972679,69.40625,115.96875,3.88875,246.25,0
136.727630138,69.39453,116.0625,3.888125,258.75,0
137.782493591,69.38281,116.0625,3.885625,269.375,0
138.837403774,69.37109,116.15625,3.890625,264.0625,0
139.716269493,69.37109,116.15625,3.888125,270.9375,0
140.771114349,69.35938,116.25,3.888125,258.75,0
141.825868130,69.34766,115.96875,3.890625,253.125,0
142.704890251,69.33594,115.875,3.888125,276.5625,0
143.759613514,69.32031,115.78125,3.888125,265.9375,0
