Time (s),Percentage (%),Time To Empty (minutes),Voltage (V),Current (mA),Is Charger Connected (Boolean)
0.010499001,61.23047,99.84375,3.8425,261.5625,0
1.065422535,61.21484,99.75,3.84375,266.875,0
2.120196819,61.20313,99.9375,3.845625,240.625,0
2.999575615,61.19141,99.84375,3.845,260.625,0
4.054554462,61.17969,99.75,3.844375,275.3125,0
5.108829975,61.17969,99.65625,3.8425,268.125,0
5.987869740,61.16797,99.5625,3.84625,253.75,0
7.042701244,61.15625,99.5625,3.844375,260.625,0
8.097709656,61.14453,99.5625,3.844375,260.625,0
8.976424217,61.13281,99.5625,3.8425,268.75,0
10.031049252,61.11719,99.5625,3.84375,269.375,0
11.085978508,61.11719,99.46875,3.844375,276.875,0
11.964964867,61.10547,99.09375,3.8425,311.25,0
13.019556046,61.09375,99.375,3.844375,255.9375,0
14.074567795,61.08203,99.28125,3.845,247.1875,0
15.129126549,61.07031,99.375,3.8425,255,0
16.008255959,61.05859,99.46875,3.844375,266.875,0
17.063024521,61.05859,99.28125,3.845625,262.1875,0
18.117926598,61.04688,99.46875,3.845,265.3125,0
18.997122288,61.03516,99.46875,3.841875,257.1875,0
20.051512241,61.01953,99.46875,3.84375,259.0625,0
21.106474400,61.00781,98.8125,3.8425,247.5,0
21.985421181,60.99609,98.625,3.84375,259.0625,0
23.040368557,60.99609,98.53125,3.844375,270.625,0
24.094877720,60.98438,98.71875,3.845625,262.1875,0
24.973829746,60.97266,98.71875,3.84375,259.0625,0
26.028784275,60.96094,98.71875,3.84375,270.9375,0
27.083624363,60.94922,98.625,3.84125,265.625,0
27.962799549,60.9375,98.71875,3.84125,273.125,0
29.017694950,60.9375,98.71875,3.841875,262.8125,0
30.072330952,60.92188,98.53125,3.843125,262.8125,0
31.127270222,60.91016,98.625,3.841875,265.9375,0
32.006186008,60.89844,98.625,3.84375,259.0625,0
33.061100483,60.88672,98.625,3.8425,254.0625,0
34.115683556,60.875,98.8125,3.8425,248.75,0
34.994742870,60.875,99,3.840625,257.1875,0
36.049587250,60.86328,99,3.84,265.9375,0
37.104157925,60.85156,99.09375,3.84125,260,0
37.983561993,60.83984,99.1875,3.843125,269.6875,0
39.037942886,60.82422,99.28125,3.843125,266.875,0
40.092856407,60.8125,99.28125,3.841875,270.3125,0
40.971838474,60.8125,99.28125,3.843125,244.375,0
42.026465893,60.80078,99.5625,3.844375,257.8125,0
43.081351280,60.78906,99.46875,3.8425,255,0
44.136128902,60.77734,99.75,3.83625,260,0
45.015251637,60.76563,99.65625,3.8425,258.4375,0
46.069981575,60.76563,99.46875,3.843125,255.9375,0
47.125271320,60.75391,99.75,3.841875,274.375,0
48.003872395,60.74219,99.75,3.843125,256.25,0
49.058372498,60.72656,99.65625,3.84,262.5,0
50.113298893,60.71484,99.28125,3.843125,269.6875,0
50.992313385,60.71484,99.375,3.84125,243.4375,0
52.047025681,60.70313,99.375,3.841875,257.5,0
53.102068424,60.69141,99.1875,3.840625,262.8125,0
53.980897903,60.67969,99.28125,3.844375,263.75,0
55.035808086,60.66797,99.1875,3.841875,259.0625,0
56.090472221,60.65625,99.28125,3.841875,280.3125,0
56.969426155,60.65625,99.28125,3.84,248.4375,0
58.024443626,60.64453,99.28125,3.84,247.5,0
59.079010487,60.62891,99.09375,3.84,270,0
60.133949280,60.61719,99.28125,3.8425,242.1875,0
61.013010025,60.60547,99.1875,3.843125,253.4375,0
62.068170071,60.59375,99.28125,3.84125,274.0625,0
63.122355938,60.58203,99.46875,3.841875,260.9375,0
64.001264095,60.58203,99.1875,3.84,253.125,0
65.056180477,60.57031,98.90625,3.840625,292.8125,0
66.111338139,60.55859,98.90625,3.841875,247.5,0
66.989974022,60.54688,98.90625,3.841875,266.875,0
68.044741154,60.53125,98.90625,3.84125,274.0625,0
69.099616528,60.53125,98.90625,3.84125,264.6875,0
69.978568554,60.51953,98.8125,3.841875,259.0625,0
71.033251286,60.50781,98.71875,3.839375,254.375,0
72.088419437,60.49609,98.8125,3.843125,254.0625,0
72.967223644,60.48438,98.71875,3.840625,255.625,0
74.022068024,60.47266,98.625,3.839375,262.5,0
75.076833725,60.47266,98.53125,3.84,251.875,0
76.131576061,60.46094,98.71875,3.83875,262.5,0
77.010828018,60.44922,98.625,3.8425,305.625,0
78.065250874,60.43359,98.25,3.83875,270.3125,0
79.120147705,60.42188,97.96875,3.839375,267.8125,0
79.999178410,60.41016,97.875,3.83625,272.1875,0
81.054368019,60.39844,97.6875,3.838125,274.0625,0
82.109040260,60.39844,97.59375,3.8375,254.375,0
82.987703800,60.38672,97.6875,3.841875,256.25,0
84.042649746,60.375,97.5,3.83875,260.3125,0
85.097246647,60.36328,97.5,3.840625,258.4375,0
85.976268768,60.36328,97.59375,3.84,275,0
87.031209946,60.35156,97.6875,3.84,269.375,0
88.085928440,60.33594,97.78125,3.839375,271.875,0
88.964929581,60.32422,97.6875,3.839375,255.9375,0
90.020169735,60.3125,97.78125,3.83875,261.25,0
91.074419498,60.30078,97.6875,3.8375,261.5625,0
92.129125595,60.28906,97.96875,3.84,253.4375,0
93.008230686,60.28906,98.0625,3.83875,260.625,0
94.063024998,60.27734,98.15625,3.839375,259.6875,0
95.118179321,60.26563,98.25,3.838125,259.0625,0
95.997236729,60.25391,98.34375,3.8375,273.125,0
97.051580906,60.23828,98.15625,3.839375,251.875,0
98.106493473,60.22656,98.0625,3.839375,260.3125,0
98.985442162,60.22656,98.15625,3.836875,264.375,0
100.040138245,60.21484,97.96875,3.836875,259.6875,0
101.095114708,60.20313,97.875,3.83875,274.6875,0
101.973994732,60.19141,97.875,3.839375,270.3125,0
103.028873920,60.17969,97.875,3.83875,260.9375,0
104.083522320,60.16797,97.875,3.8375,247.8125,0
104.963109016,60.16797,97.875,3.838125,261.5625,0
106.017434597,60.15625,97.78125,3.84,269.0625,0
107.072303772,60.14063,97.875,3.84125,264.0625,0
108.127229214,60.12891,97.875,3.83625,279.375,0
109.006285667,60.11719,97.875,3.838125,270.3125,0
110.061267853,60.10547,97.875,3.838125,252.5,0
111.115683556,60.10547,98.0625,3.835625,256.25,0
111.994725704,60.09375,97.78125,3.84,273.4375,0
113.049564838,60.08203,97.6875,3.83875,271.5625,0
114.104166985,60.07031,97.40625,3.83875,306.875,0
114.983153820,60.05859,97.59375,3.83625,259.0625,0
116.037922382,60.05859,97.6875,3.83625,255.3125,0
117.092827320,60.04297,97.6875,3.835625,252.1875,0
117.971836090,60.03125,97.875,3.83875,263.125,0
119.026570797,60.01953,97.6875,3.840625,258.125,0
120.081407547,60.00781,97.59375,3.836875,269.6875,0
121.136230946,59.99609,97.59375,3.836875,277.8125,0
122.015368462,59.99609,97.6875,3.8375,255.3125,0
123.070150375,59.98438,97.59375,3.83375,281.875,0
124.125024796,59.97266,97.5,3.835,274.0625,0
125.003695488,59.96094,97.59375,3.84,253.125,0
126.058578491,59.94531,97.40625,3.836875,261.875,0
127.113390923,59.93359,97.59375,3.836875,250,0
127.992583752,59.93359,97.59375,3.836875,259.0625,0
129.047031403,59.92188,97.59375,3.83875,271.5625,0
130.101745605,59.91016,97.6875,3.835,268.75,0
130.980912209,59.89844,97.78125,3.8375,258.75,0
132.035632610,59.88672,97.875,3.83875,253.75,0
133.090992451,59.88672,97.875,3.835625,251.25,0
133.969625473,59.875,97.875,3.835625,255.9375,0
135.024202824,59.86328,97.59375,3.835625,271.5625,0
