Time (s),Percentage (%),Time To Empty (minutes),Voltage (V),Current (mA),Is Charger Connected (Boolean)
0.436928272,80.02734,133.59375,3.9725,265.9375,0
1.491845608,80.01563,133.59375,3.975,269.375,0
2.546477795,80.00391,133.6875,3.970625,263.75,0
3.425655365,79.99219,133.59375,3.974375,270,0
4.480292797,79.98047,133.59375,3.975625,256.875,0
5.535351753,79.96484,133.78125,3.974375,268.75,0
6.414096832,79.96484,133.59375,3.974375,257.8125,0
7.468867779,79.95313,133.78125,3.9725,265.9375,0
8.523649216,79.94141,133.40625,3.97375,272.5,0
9.402814865,79.92969,133.59375,3.97375,258.125,0
10.457444191,79.91797,133.5,3.9725,273.4375,0
11.512373447,79.90625,133.78125,3.971875,262.1875,0
12.391307831,79.90625,133.78125,3.975,262.5,0
13.446168899,79.89453,133.78125,3.973125,272.1875,0
14.500811577,79.88281,133.875,3.975,261.25,0
15.555605411,79.86719,133.78125,3.9725,260.625,0
16.434760570,79.85547,133.5,3.97,271.875,0
17.489375114,79.85547,133.6875,3.971875,267.1875,0
18.544367790,79.84375,133.40625,3.974375,273.125,0
19.423230648,79.83203,133.40625,3.97125,259.6875,0
20.477955341,79.82031,133.59375,3.97375,262.8125,0
21.532891750,79.80859,133.6875,3.97125,256.25,0
22.411795139,79.80859,133.78125,3.970625,260,0
23.466689110,79.79688,133.6875,3.97375,265.9375,0
24.521521568,79.78516,133.5,3.971875,254.0625,0
25.400488853,79.76953,132.9375,3.97125,256.25,0
26.455371857,79.75781,133.125,3.97125,259.6875,0
27.510198593,79.74609,133.125,3.971875,261.5625,0
28.388973236,79.74609,133.21875,3.971875,254.0625,0
29.444214821,79.73438,133.21875,3.97125,264.0625,0
30.498493194,79.72266,133.3125,3.97,262.5,0
31.553411960,79.71094,133.59375,3.971875,262.8125,0
32.432312965,79.69922,133.59375,3.969375,259.6875,0
33.487202167,79.69922,133.6875,3.97,274.0625,0
34.542639732,79.6875,133.6875,3.97,260.3125,0
35.421031952,79.67188,133.59375,3.970625,275.9375,0
36.475647926,79.66016,133.59375,3.97125,262.5,0
37.530551433,79.64844,133.40625,3.9725,269.0625,0
38.409634590,79.64844,133.40625,3.96875,270.625,0
39.464461326,79.63672,133.5,3.97125,257.8125,0
40.519147873,79.625,133.5,3.971875,260.9375,0
41.398025036,79.61328,133.5,3.969375,268.75,0
42.452793121,79.60156,133.40625,3.97,259.6875,0
43.507799148,79.58984,133.5,3.968125,270.3125,0
44.386598587,79.58984,133.3125,3.97,265.625,0
45.441545009,79.57422,133.40625,3.970625,255.3125,0
46.496548653,79.5625,133.3125,3.966875,274.0625,0
47.550981045,79.55078,133.3125,3.970625,256.25,0
48.430093288,79.53906,133.3125,3.970625,250.3125,0
49.484956264,79.52734,133.3125,3.966875,276.5625,0
50.539704323,79.52734,133.5,3.970625,257.1875,0
51.418961048,79.51563,133.40625,3.971875,259.0625,0
52.473460197,79.50391,133.21875,3.970625,264.375,0
53.528524876,79.49219,133.21875,3.97125,254.0625,0
54.407166481,79.47656,133.03125,3.969375,277.1875,0
55.462113380,79.47656,133.03125,3.971875,251.25,0
56.516774654,79.46484,132.84375,3.970625,264.6875,0
57.395852089,79.45313,132.84375,3.968125,264.6875,0
58.450485706,79.44141,132.84375,3.97,270.9375,0
59.505283356,79.42969,133.03125,3.96875,249.375,0
60.384400844,79.41797,132.65625,3.969375,276.5625,0
61.439306259,79.41797,132.46875,3.96875,270.9375,0
62.493994236,79.40625,132.46875,3.968125,271.5625,0
63.548915863,79.39453,132.5625,3.96875,260.625,0
64.427822113,79.37891,132.46875,3.96875,269.0625,0
65.482451439,79.36719,132.46875,3.9675,253.125,0
66.537438393,79.35547,132.375,3.96625,280,0
67.416356087,79.35547,132.46875,3.97,255,0
68.471002579,79.34375,132.375,3.966875,260.9375,0
69.525829792,79.33203,132.75,3.97,253.75,0
70.404871940,79.32031,132.5625,3.97,251.875,0
71.459587097,79.30859,132.1875,3.966875,281.25,0
72.514524937,79.29688,132.28125,3.96875,275.3125,0
73.393525600,79.29688,132.375,3.966875,255.9375,0
74.448379993,79.28125,132.65625,3.96625,267.8125,0
75.503004551,79.26953,132.75,3.965625,271.875,0
76.557983398,79.25781,132.75,3.968125,270,0
77.436752319,79.24609,132.75,3.968125,256.25,0
78.491821766,79.24609,132.5625,3.968125,262.5,0
79.546522617,79.23438,132.5625,3.966875,255.9375,0
80.425674915,79.22266,132.5625,3.965625,270.625,0
81.480160236,79.21094,132.5625,3.9675,255.9375,0
82.535108566,79.19922,132.65625,3.960625,272.5,0
83.413916111,79.19922,132.65625,3.968125,262.8125,0
84.468841553,79.18359,132.375,3.968125,259.6875,0
85.524000168,79.17188,132.46875,3.96125,259.6875,0
86.402668476,79.16016,132.1875,3.9675,250.9375,0
87.457809925,79.14844,132.28125,3.96625,256.875,0
88.512244701,79.13672,132.75,3.966875,275.9375,0
89.391220093,79.13672,132.5625,3.96625,262.5,0
90.446192264,79.125,132.5625,3.965625,268.4375,0
91.500785351,79.11328,132.5625,3.96875,254.375,0
92.556105614,79.10156,132.5625,3.966875,257.8125,0
93.434607506,79.08594,132.28125,3.965,267.5,0
94.489302635,79.08594,132.28125,3.966875,262.8125,0
95.544136524,79.07422,132.375,3.96625,259.0625,0
96.423178196,79.0625,132.46875,3.9675,267.8125,0
97.477944374,79.05078,132.46875,3.965,261.5625,0
98.532597065,79.03906,132,3.96625,257.8125,0
99.411727428,79.03906,132.1875,3.965625,263.75,0
100.466413498,79.02734,131.90625,3.96625,258.75,0
101.521315575,79.01563,131.90625,3.9675,245,0
102.400364399,79.00391,131.90625,3.96625,262.8125,0
103.455152035,78.98828,132.1875,3.96625,248.4375,0
104.510090351,78.97656,132.1875,3.965,276.25,0
105.388889789,78.97656,132.09375,3.96625,252.1875,0
106.443868637,78.96484,132.09375,3.965,267.5,0
107.498587131,78.95313,131.8125,3.961875,275,0
108.553256988,78.94141,131.8125,3.968125,259.375,0
109.432555199,78.92969,131.625,3.965,287.8125,0
110.487071037,78.91797,131.625,3.965,271.5625,0
111.541847229,78.91797,131.8125,3.965,259.6875,0
112.420749664,78.90625,131.53125,3.96375,274.0625,0
113.475608826,78.89063,132,3.965,259.0625,0
114.530858517,78.87891,131.625,3.966875,265.625,0
115.409401893,78.86719,131.71875,3.96125,265.625,0
116.464039326,78.86719,131.8125,3.96375,260,0
117.518877029,78.85547,131.8125,3.968125,255.3125,0
118.398043632,78.84375,132.09375,3.965,255.3125,0
119.452816486,78.83203,132,3.965,263.4375,0
120.507588386,78.82031,132,3.965,253.4375,0
121.386790275,78.82031,132,3.963125,265.625,0
122.441375255,78.80859,131.90625,3.963125,256.875,0
123.496062755,78.79297,131.90625,3.965,288.75,0
124.551000118,78.78125,132,3.965,261.875,0
125.429912567,78.76953,132,3.965,269.375,0
126.484990597,78.75781,131.8125,3.963125,280.625,0
127.539576530,78.74609,132,3.96125,267.1875,0
128.418978691,78.74609,132.09375,3.964375,260.9375,0
129.473151684,78.73438,132.09375,3.9625,254.6875,0
130.528108597,78.72266,131.8125,3.965,263.75,0
131.407003879,78.71094,132,3.96375,268.4375,0
132.461930752,78.69531,131.90625,3.965,259.0625,0
133.516895771,78.69531,131.90625,3.96125,273.125,0
134.395726681,78.68359,131.90625,3.96125,268.4375,0
135.450881481,78.67188,131.625,3.9625,266.25,0
136.505237579,78.66016,131.4375,3.963125,259.6875,0
137.384909153,78.64844,131.625,3.963125,263.125,0
138.438893795,78.63672,131.34375,3.965,260.625,0
139.493842125,78.63672,131.25,3.964375,251.25,0
140.548461437,78.625,131.34375,3.96,276.875,0
141.427643776,78.61328,131.34375,3.963125,255.9375,0
142.482295990,78.59766,131.71875,3.95875,251.5625,0
143.537541389,78.58594,131.625,3.961875,268.75,0
144.416236877,78.58594,131.71875,3.963125,258.125,0
145.470879078,78.57422,131.71875,3.9625,263.125,0
146.525625229,78.5625,131.625,3.960625,275,0
147.404669285,78.55078,131.0625,3.961875,252.5,0
148.459465980,78.53906,131.25,3.963125,275.625,0
149.514332294,78.52734,131.4375,3.96125,257.8125,0
