Time (s),Percentage (%),Time To Empty (minutes),Voltage (V),Current (mA),Is Charger Connected (Boolean)
0.650755882,80.45313,136.96875,3.965625,271.25,0
1.705553532,80.44141,136.96875,3.97,253.75,0
2.760215759,80.42969,136.875,3.9675,268.75,0
3.639510631,80.41797,137.0625,3.96875,266.25,0
4.694035053,80.40625,137.0625,3.96625,265,0
5.749126434,80.40625,136.875,3.96625,256.875,0
6.627888679,80.39453,136.96875,3.968125,260.625,0
7.682528019,80.38281,137.0625,3.968125,255.625,0
8.737346172,80.37109,137.0625,3.96625,253.125,0
9.616328239,80.35547,136.6875,3.966875,257.8125,0
10.671268940,80.35547,136.3125,3.966875,270.9375,0
11.726067543,80.34375,136.40625,3.96875,256.5625,0
12.605052948,80.33203,135.9375,3.96875,257.5,0
13.659819126,80.32031,135.9375,3.9675,241.875,0
14.714487553,80.30859,136.125,3.963125,252.1875,0
15.769359112,80.29688,136.3125,3.965625,262.1875,0
16.648436069,80.29688,136.40625,3.965625,251.5625,0
17.703176498,80.28516,136.59375,3.968125,259.375,0
18.757860184,80.27344,136.6875,3.966875,252.8125,0
19.637003899,80.25781,136.6875,3.968125,253.75,0
20.691639900,80.24609,136.59375,3.966875,252.8125,0
21.746594429,80.24609,136.6875,3.96875,258.75,0
22.625499248,80.23438,136.59375,3.96625,263.4375,0
23.680424213,80.22266,136.59375,3.9675,258.75,0
24.735223293,80.21094,136.3125,3.966875,269.0625,0
25.614239693,80.19922,136.5,3.966875,255.625,0
26.668893337,80.19922,136.125,3.965625,255.3125,0
27.723640919,80.1875,136.40625,3.966875,256.875,0
28.778536320,80.17578,136.125,3.9675,264.0625,0
29.657456398,80.16016,135.9375,3.965625,248.75,0
30.712327003,80.14844,135.75,3.965,248.125,0
31.767013550,80.13672,136.125,3.966875,263.125,0
32.646131992,80.13672,136.03125,3.963125,252.8125,0
33.700776577,80.125,136.03125,3.965625,254.6875,0
34.755732536,80.11328,135.84375,3.96625,271.5625,0
35.634670734,80.10156,135.84375,3.96375,253.75,0
36.689527035,80.08984,135.75,3.965625,261.25,0
37.744287968,80.08984,135.84375,3.966875,252.1875,0
38.623322964,80.07813,135.65625,3.965625,255.3125,0
39.678296566,80.0625,135.65625,3.96625,250.9375,0
40.733335495,80.05078,135.75,3.96625,253.4375,0
41.612112999,80.05078,135.75,3.963125,270.9375,0
42.667129040,80.03906,135.65625,3.965625,253.75,0
43.721498966,80.02734,135.65625,3.965,249.6875,0
44.776113987,80.01563,135.75,3.965625,242.1875,0
45.655148506,80.00391,135.75,3.965,271.875,0
46.710091114,79.99219,135.1875,3.964375,257.1875,0
47.764873505,79.99219,135.65625,3.965625,248.125,0
48.643870354,79.98047,135.75,3.965,257.1875,0
49.698595047,79.96484,136.21875,3.964375,252.1875,0
50.753482819,79.95313,136.40625,3.966875,271.875,0
51.632402897,79.94141,136.40625,3.9625,268.125,0
52.687228680,79.94141,136.5,3.964375,259.6875,0
53.742264748,79.92969,136.125,3.964375,262.1875,0
54.620975494,79.91797,135.9375,3.964375,255,0
55.676144123,79.90625,136.03125,3.965,254.0625,0
56.730562210,79.89453,136.125,3.964375,248.125,0
57.609686851,79.89453,136.3125,3.965,254.375,0
58.664224148,79.88281,136.3125,3.963125,254.0625,0
59.719128609,79.86719,136.5,3.9625,254.6875,0
60.773954868,79.85547,136.3125,3.96375,258.4375,0
61.652935505,79.84375,136.40625,3.965625,253.125,0
62.707767010,79.84375,136.40625,3.966875,256.5625,0
63.762790680,79.83203,136.40625,3.963125,252.1875,0
64.642161846,79.82031,136.3125,3.965,251.875,0
65.696613312,79.80859,136.125,3.963125,248.4375,0
66.751149177,79.79688,136.40625,3.965,264.6875,0
67.630142689,79.78516,136.21875,3.96375,259.0625,0
68.684954643,79.78516,136.125,3.960625,264.375,0
69.739627838,79.76953,136.03125,3.965,263.125,0
70.618786335,79.75781,136.125,3.963125,266.25,0
71.673371315,79.74609,136.125,3.96375,262.1875,0
72.728322029,79.73438,135.9375,3.963125,262.5,0
73.607301712,79.73438,135.9375,3.965,252.1875,0
74.662115097,79.72266,135.84375,3.96375,249.375,0
75.716851711,79.71094,135.84375,3.965,250.9375,0
76.771896839,79.69922,135.5625,3.96,272.5,0
77.651071548,79.6875,135.65625,3.964375,249.0625,0
78.705717087,79.67188,135.75,3.961875,262.5,0
79.760110855,79.67188,135.84375,3.96125,253.125,0
80.639573097,79.66016,135.84375,3.963125,258.4375,0
81.694068909,79.64844,135.65625,3.963125,266.5625,0
82.748766899,79.63672,135.5625,3.96125,266.875,0
83.627862453,79.625,135.5625,3.9625,259.375,0
84.682479381,79.625,135.46875,3.9625,261.25,0
85.737439156,79.61328,135.65625,3.9625,248.4375,0
86.616418838,79.60156,135.5625,3.9625,258.4375,0
87.671279907,79.58984,135.5625,3.961875,243.4375,0
88.725972176,79.57422,135.09375,3.960625,274.0625,0
89.605038166,79.57422,135.375,3.9625,252.1875,0
90.660010338,79.5625,135.375,3.96125,270.3125,0
91.714864254,79.55078,135.28125,3.9625,246.25,0
92.769834995,79.53906,134.90625,3.96125,297.1875,0
93.648584366,79.52734,135,3.96125,252.8125,0
94.703022480,79.52734,134.90625,3.959375,254.375,0
95.757879734,79.51563,134.8125,3.9625,258.75,0
96.636984348,79.50391,134.625,3.96125,291.5625,0
97.691633701,79.49219,134.90625,3.96125,260,0
98.746541977,79.47656,134.8125,3.9625,255,0
99.625556469,79.47656,134.8125,3.9625,248.125,0
100.680317402,79.46484,134.71875,3.960625,265,0
101.735136509,79.45313,135.09375,3.960625,241.5625,0
102.614151001,79.44141,134.90625,3.960625,260.3125,0
103.668902874,79.42969,135.1875,3.963125,251.875,0
104.723572254,79.41797,135.09375,3.96125,262.5,0
105.602643013,79.41797,135.1875,3.959375,248.4375,0
106.657364845,79.40625,134.71875,3.963125,285.9375,0
107.712612152,79.39453,134.625,3.96125,259.375,0
108.767106056,79.37891,134.53125,3.959375,253.125,0
109.646243095,79.36719,134.34375,3.96125,267.1875,0
110.700763702,79.36719,134.53125,3.96125,250,0
111.755691051,79.35547,134.71875,3.96125,258.75,0
112.634592056,79.34375,134.53125,3.95875,253.125,0
113.689508438,79.33203,134.71875,3.960625,255.625,0
114.744231701,79.32031,134.53125,3.960625,247.5,0
115.623305321,79.32031,134.625,3.959375,251.25,0
116.678061485,79.30859,134.4375,3.960625,257.5,0
117.732854366,79.29688,134.90625,3.960625,268.4375,0
118.611677647,79.28125,134.90625,3.96125,251.25,0
119.666845322,79.26953,135.1875,3.96,255.3125,0
120.721841335,79.26953,135.1875,3.960625,253.75,0
121.776318550,79.25781,135.28125,3.95875,260.3125,0
122.655333042,79.24609,135.1875,3.96125,252.8125,0
123.709956169,79.23438,134.8125,3.958125,270.3125,0
124.764682770,79.22266,134.8125,3.961875,252.8125,0
125.643659115,79.22266,134.71875,3.960625,251.25,0
126.698563576,79.21094,134.90625,3.959375,260.625,0
127.753365040,79.19922,135,3.96,256.5625,0
128.632380009,79.18359,135.28125,3.95875,250.3125,0
129.687150478,79.17188,135,3.956875,262.5,0
130.741823196,79.16016,135.1875,3.958125,253.125,0
131.620952129,79.16016,135,3.95875,276.875,0
132.675657272,79.14844,135,3.9575,255.9375,0
133.730803966,79.13672,135,3.958125,265.9375,0
134.609765053,79.125,135.09375,3.956875,250,0
135.664740562,79.11328,134.71875,3.954375,311.5625,0
136.719250202,79.11328,134.625,3.95875,253.4375,0
137.773768902,79.10156,134.71875,3.96,250.3125,0
138.652853489,79.08594,134.71875,3.958125,251.875,0
139.707583427,79.07422,135,3.958125,256.875,0
140.762510776,79.0625,135,3.95875,265.625,0
141.641567707,79.0625,134.90625,3.954375,267.8125,0
142.696277618,79.05078,135.09375,3.960625,248.4375,0
143.751114845,79.03906,135.09375,3.9575,251.25,0
144.630034447,79.02734,135.09375,3.958125,275.9375,0
145.685008526,79.01563,135.09375,3.95875,247.8125,0
146.739725590,79.01563,135.1875,3.959375,265.9375,0
147.618718147,79.00391,134.90625,3.9575,271.5625,0
148.673419475,78.98828,134.90625,3.9575,269.0625,0
149.728412628,78.97656,134.4375,3.95625,249.0625,0
150.607095718,78.96484,134.25,3.96,265,0
151.662154674,78.96484,133.96875,3.956875,268.4375,0
152.716710091,78.95313,133.78125,3.955,273.125,0
153.771638870,78.94141,133.59375,3.958125,269.6875,0
154.650493622,78.92969,133.40625,3.9525,295.625,0
155.705432892,78.91797,133.03125,3.95875,262.5,0
156.760246754,78.90625,133.03125,3.955625,253.125,0
157.639249325,78.90625,133.125,3.959375,273.4375,0
158.693994999,78.89063,132.84375,3.954375,263.75,0
159.748878956,78.87891,132.65625,3.9575,265,0
160.627710819,78.86719,132.5625,3.954375,275.9375,0
161.682642460,78.85547,132.5625,3.956875,263.4375,0
162.737549305,78.84375,132.28125,3.95625,249.375,0
163.616331577,78.84375,132.375,3.958125,247.5,0
164.671371460,78.83203,132.5625,3.955625,266.25,0
165.726004124,78.82031,132.9375,3.956875,241.875,0
166.605153084,78.80859,133.125,3.95375,265,0
167.659661293,78.79297,133.125,3.9575,254.6875,0
168.714394092,78.79297,133.40625,3.959375,249.375,0
169.769365787,78.78125,133.40625,3.956875,263.4375,0
170.648378372,78.76953,133.3125,3.956875,263.4375,0
171.703110695,78.75781,133.5,3.955625,253.125,0
172.757948399,78.74609,133.6875,3.956875,252.8125,0
173.636910915,78.74609,134.0625,3.955,254.0625,0
174.692524433,78.73438,134.34375,3.9575,251.875,0
175.746520996,78.72266,134.25,3.954375,263.125,0
176.625333309,78.71094,134.53125,3.955625,252.1875,0
177.680560589,78.69531,134.25,3.95625,255,0
178.735414982,78.68359,134.34375,3.95625,255,0
179.614239216,78.68359,134.25,3.955625,253.4375,0
180.669079781,78.67188,134.34375,3.955625,251.875,0
181.723526478,78.66016,134.34375,3.954375,268.4375,0
182.602706909,78.64844,134.15625,3.955625,255.625,0
183.657315731,78.63672,134.25,3.95625,260,0
184.712255955,78.63672,134.15625,3.954375,262.8125,0
185.767063141,78.625,134.0625,3.954375,276.25,0
186.646060944,78.61328,134.0625,3.95625,255.9375,0
187.700874805,78.59766,134.0625,3.9525,268.125,0
188.755518913,78.58594,133.96875,3.955625,254.0625,0
189.634649753,78.58594,133.875,3.955625,259.6875,0
190.689298630,78.57422,133.96875,3.954375,251.25,0
191.744472980,78.5625,133.6875,3.954375,264.0625,0
192.623074055,78.55078,133.59375,3.95375,253.125,0
193.678418636,78.53906,133.3125,3.955,259.375,0
194.732817173,78.53906,133.59375,3.9525,258.75,0
195.612120628,78.52734,133.6875,3.95375,255.3125,0
196.666637897,78.51563,133.6875,3.95375,265.3125,0
197.721255779,78.5,133.875,3.954375,247.8125,0
198.776228428,78.48828,133.59375,3.95375,261.875,0
199.655039310,78.48828,133.875,3.95375,253.125,0
200.709965229,78.47656,133.875,3.955,255.9375,0
201.764756679,78.46484,134.0625,3.954375,254.0625,0
202.643737793,78.45313,133.96875,3.954375,271.875,0
203.698590279,78.44141,133.59375,3.954375,250.9375,0
204.753280640,78.42969,133.5,3.95375,273.75,0
205.632349014,78.42969,133.3125,3.954375,253.4375,0
