Time (s),Percentage (%),Time To Empty (minutes),Voltage (V),Current (mA),Is Charger Connected (Boolean)
0.866881371,57.94531,93.65625,3.823125,266.875,0
1.746112347,57.93359,93.65625,3.825,271.5625,0
2.800597191,57.92188,93.65625,3.825625,258.125,0
3.855442524,57.91016,93.65625,3.825625,269.0625,0
4.734341144,57.89453,93.65625,3.823125,265.9375,0
5.789224625,57.88281,93.84375,3.825,254.0625,0
6.843986988,57.88281,93.65625,3.825,265.625,0
7.898842335,57.87109,93.84375,3.823125,268.125,0
8.777911186,57.85938,93.9375,3.823125,255.9375,0
9.832874298,57.84766,93.84375,3.82125,262.1875,0
10.887337208,57.83594,93.46875,3.824375,253.125,0
11.766455650,57.82422,93.46875,3.823125,260,0
12.821200371,57.82422,93.46875,3.82375,262.1875,0
13.876056194,57.8125,93.375,3.82375,272.1875,0
14.755147934,57.79688,93.375,3.821875,261.5625,0
15.809874535,57.78516,93.375,3.820625,248.125,0
16.864514828,57.77344,93.46875,3.82125,265.625,0
17.743578911,57.76172,93.46875,3.8225,271.5625,0
18.798666477,57.76172,93.65625,3.82375,262.5,0
19.853422642,57.75,93.75,3.821875,272.1875,0
20.908440113,57.73828,93.9375,3.82375,259.0625,0
21.787245274,57.72656,94.03125,3.825,248.75,0
22.841989517,57.71484,94.03125,3.821875,261.5625,0
23.896820068,57.69922,94.03125,3.821875,253.4375,0
24.775968552,57.69922,93.75,3.825,275.3125,0
25.830363750,57.6875,93.65625,3.8225,264.6875,0
26.885134220,57.67578,93.65625,3.823125,274.0625,0
27.764272213,57.66406,93.75,3.821875,256.25,0
28.819023609,57.65234,93.65625,3.819375,276.25,0
29.874227047,57.64063,93.75,3.823125,257.8125,0
30.752717018,57.64063,93.75,3.823125,265.625,0
31.807491779,57.62891,93.65625,3.82125,285.3125,0
32.862321377,57.61719,93.84375,3.8225,265.625,0
33.741368294,57.60156,93.75,3.82375,255.625,0
34.796001434,57.58984,93.84375,3.8225,259.0625,0
35.850916386,57.57813,93.9375,3.820625,261.875,0
36.905578613,57.57813,93.84375,3.823125,259.6875,0
37.784680843,57.56641,93.9375,3.819375,249.0625,0
38.840085506,57.55469,93.9375,3.821875,255.9375,0
39.894426346,57.54297,93.9375,3.820625,270.9375,0
40.773232937,57.54297,93.9375,3.8225,275.3125,0
41.828004360,57.53125,93.84375,3.821875,279.6875,0
42.882938862,57.51953,93.84375,3.823125,259.0625,0
43.761838913,57.50391,93.84375,3.82,264.6875,0
44.816861629,57.49219,93.9375,3.82125,266.5625,0
45.871325493,57.48047,93.75,3.820625,259.6875,0
46.750363350,57.48047,93.75,3.82125,260.625,0
47.805452824,57.46875,93.84375,3.82,260.625,0
48.860224724,57.45703,93.84375,3.821875,268.75,0
49.739109039,57.44531,93.75,3.819375,259.6875,0
50.794029713,57.43359,93.84375,3.821875,260.9375,0
51.848758697,57.42188,94.125,3.823125,246.25,0
52.903540134,57.40625,93.75,3.821875,248.4375,0
53.782540798,57.40625,93.5625,3.823125,265.9375,0
54.837472916,57.39453,93.5625,3.8225,268.4375,0
55.892118931,57.38281,93.46875,3.819375,269.375,0
56.771139145,57.37109,93.28125,3.8225,260,0
57.825917721,57.35938,93.1875,3.82,270.3125,0
58.880529880,57.34766,93.1875,3.821875,267.5,0
59.760082722,57.34766,93.1875,3.820625,252.8125,0
60.814391613,57.33594,93.1875,3.819375,251.25,0
61.869304180,57.32422,92.90625,3.820625,247.8125,0
62.748254299,57.30859,92.625,3.821875,265.9375,0
63.803052425,57.29688,92.53125,3.821875,261.5625,0
64.858236790,57.28516,92.53125,3.82125,277.8125,0
66.791745663,57.27344,92.53125,3.82125,263.4375,0
67.846533298,57.26172,92.53125,3.819375,264.375,0
68.901172161,57.25,92.4375,3.82,257.8125,0
69.780154705,57.23828,92.4375,3.82125,269.6875,0
70.834980011,57.22656,92.53125,3.8225,254.6875,0
71.889882088,57.21094,92.625,3.82,265,0
72.768836975,57.21094,92.625,3.819375,269.0625,0
73.823492527,57.19922,92.71875,3.82,263.125,0
74.878786087,57.1875,92.34375,3.816875,282.8125,0
75.757424831,57.17578,92.34375,3.819375,276.5625,0
76.812346935,57.16406,92.34375,3.819375,261.875,0
77.867083549,57.15234,92.25,3.82,265.9375,0
78.746119976,57.15234,92.34375,3.820625,250.625,0
79.801150799,57.14063,92.53125,3.81875,255.3125,0
80.855562210,57.12891,92.4375,3.819375,255,0
81.734718323,57.11328,92.71875,3.821875,263.75,0
82.789454460,57.11328,92.71875,3.819375,264.6875,0
83.844686985,57.10156,92.34375,3.819375,261.875,0
84.898952007,57.08984,92.4375,3.8175,250.3125,0
85.777882099,57.07813,92.625,3.82,259.375,0
86.832799435,57.06641,92.4375,3.81875,265.9375,0
87.887542248,57.05469,92.625,3.8175,269.6875,0
88.766557217,57.05469,92.71875,3.8175,255.9375,0
89.821484089,57.04297,92.625,3.82125,246.5625,0
90.876060009,57.03125,92.8125,3.815,265.9375,0
91.755127430,57.01563,92.90625,3.819375,250.3125,0
93.864808559,56.99219,91.96875,3.819375,257.5,0
94.743592739,56.98047,91.59375,3.820625,256.5625,0
95.798303127,56.98047,91.40625,3.811875,270,0
96.853463650,56.96875,91.6875,3.819375,273.4375,0
97.908156872,56.95703,91.6875,3.819375,272.5,0
98.787087440,56.94531,91.6875,3.81625,279.375,0
99.841909885,56.93359,91.6875,3.8175,272.1875,0
100.896734714,56.91797,91.59375,3.818125,277.8125,0
101.775775909,56.91797,91.5,3.816875,280,0
102.830843449,56.90625,91.6875,3.81875,269.0625,0
103.885602951,56.89453,91.6875,3.819375,266.875,0
104.764419556,56.88281,91.78125,3.81625,258.75,0
105.819426060,56.87109,91.96875,3.8175,262.1875,0
106.874048710,56.85938,92.25,3.8175,255.3125,0
107.752888203,56.85938,91.96875,3.816875,273.4375,0
108.807989597,56.84766,92.15625,3.816875,259.375,0
109.862471580,56.83594,92.15625,3.8175,262.8125,0
110.741558552,56.82031,92.34375,3.81125,258.125,0
111.796328068,56.80859,92.15625,3.81625,270,0
112.851084232,56.79688,92.34375,3.81625,254.6875,0
113.905938148,56.78516,92.15625,3.816875,269.375,0
