Time (s),Percentage (%),Time To Empty (minutes),Voltage (V),Current (mA),Is Charger Connected (Boolean)
0.208359242,58.94531,96.75,3.823125,276.875,0
1.262962818,58.93359,96.9375,3.823125,265,0
2.142346382,58.92188,96.84375,3.825625,265.9375,0
3.196974754,58.91016,96.84375,3.823125,274.0625,0
4.251553536,58.89844,96.84375,3.823125,257.1875,0
5.130715847,58.89844,96.5625,3.825625,268.75,0
6.185344219,58.88672,96.5625,3.825,265,0
7.240163326,58.87109,96.84375,3.823125,273.125,0
8.119164944,58.85938,96.5625,3.824375,269.0625,0
9.174129009,58.84766,96.375,3.82375,271.5625,0
10.228855133,58.83594,96.65625,3.8225,266.875,0
11.107808113,58.83594,96.46875,3.824375,253.75,0
12.162988663,58.82422,96.5625,3.821875,271.5625,0
13.217395306,58.8125,96.75,3.82375,267.5,0
14.272267819,58.80078,96.84375,3.824375,265.9375,0
15.151347637,58.78906,96.84375,3.823125,258.75,0
16.206155300,58.78906,96.75,3.82,262.5,0
17.261195183,58.77344,96.84375,3.825,272.1875,0
18.139713287,58.76172,96.9375,3.8225,272.1875,0
19.194660187,58.75,96.84375,3.821875,263.4375,0
20.249504566,58.73828,96.84375,3.824375,246.25,0
21.128312588,58.73828,96.84375,3.820625,273.4375,0
22.183199406,58.72656,96.84375,3.821875,261.25,0
23.237928867,58.71484,96.84375,3.823125,262.1875,0
24.117059708,58.70313,96.75,3.820625,279.375,0
25.171891689,58.69141,96.84375,3.821875,270.625,0
26.227307797,58.67578,96.84375,3.82375,263.125,0
27.105854034,58.67578,96.84375,3.8175,271.875,0
28.160295486,58.66406,96.9375,3.824375,259.6875,0
29.215268135,58.65234,96.9375,3.8225,267.5,0
30.269890785,58.64063,96.84375,3.8225,261.5625,0
31.149193764,58.62891,96.84375,3.8225,250.9375,0
32.203906059,58.61719,96.84375,3.8225,262.8125,0
33.258476257,58.61719,96.84375,3.823125,265.625,0
34.137607574,58.60547,96.84375,3.82125,250.3125,0
35.192267418,58.59375,96.65625,3.821875,258.4375,0
36.247192860,58.57813,96.65625,3.823125,243.4375,0
37.126147747,58.57813,96.65625,3.823125,272.8125,0
38.180992127,58.56641,96.5625,3.82125,255.9375,0
39.235795498,58.55469,96.5625,3.821875,253.4375,0
40.115147114,58.54297,96.5625,3.82125,267.1875,0
41.170036316,58.53125,96.65625,3.823125,262.5,0
42.224243641,58.51953,96.65625,3.825625,260.9375,0
43.103401184,58.51953,96.5625,3.821875,268.4375,0
44.158195496,58.50781,96.375,3.8225,259.375,0
45.212975979,58.49609,96.46875,3.820625,271.25,0
46.267709732,58.48047,96.375,3.819375,268.4375,0
47.146668434,58.46875,96.5625,3.82375,253.125,0
48.201582432,58.45703,96.375,3.82,290,0
49.256322861,58.45703,96.28125,3.820625,264.6875,0
50.135206223,58.44531,96.1875,3.82125,255.3125,0
51.190205574,58.43359,96.09375,3.82125,275,0
52.244788647,58.42188,96.09375,3.820625,268.75,0
53.123925209,58.41016,96.09375,3.82125,257.8125,0
54.178762436,58.41016,96.1875,3.8175,276.5625,0
55.233698368,58.39844,96.28125,3.821875,273.75,0
56.112814426,58.38281,96.28125,3.82125,261.5625,0
57.167164326,58.37109,96.1875,3.820625,270.3125,0
58.222086430,58.35938,96.28125,3.820625,258.125,0
59.101111412,58.35938,96.1875,3.82125,264.375,0
60.156206131,58.34766,96.1875,3.819375,271.5625,0
61.210530758,58.33594,96.28125,3.82125,279.6875,0
62.265415192,58.32422,96.28125,3.823125,251.5625,0
63.144469738,58.3125,96.375,3.82125,260,0
65.254191399,58.30078,96.28125,3.823125,271.5625,0
66.133151054,58.28516,96.375,3.82,260.3125,0
67.187746525,58.27344,96.46875,3.82,256.25,0
68.242710590,58.26172,96.5625,3.82125,257.1875,0
69.121534348,58.25,96.46875,3.82,274.375,0
70.176382065,58.23828,96.5625,3.82,262.8125,0
71.231136322,58.23828,96.375,3.82125,265.9375,0
72.110131741,58.22656,96.375,3.82,261.5625,0
73.165015221,58.21484,96.375,3.82125,255.625,0
74.219701767,58.20313,96.375,3.821875,259.6875,0
75.099155903,58.1875,96.5625,3.81875,259.6875,0
76.153655529,58.1875,96.375,3.819375,256.875,0
77.208436012,58.17578,96.1875,3.820625,255.3125,0
78.263260841,58.16406,96.09375,3.82,262.5,0
79.142101765,58.15234,96.09375,3.818125,253.4375,0
80.197138786,58.14063,96.28125,3.8175,254.0625,0
81.251696587,58.14063,96.09375,3.82125,253.75,0
82.130870342,58.12891,96.1875,3.819375,255,0
83.185645103,58.11719,96.46875,3.820625,272.1875,0
84.241039753,58.10547,96.1875,3.820625,272.5,0
85.119270325,58.08984,95.8125,3.819375,263.125,0
86.174126148,58.08984,95.625,3.818125,255.625,0
87.229004383,58.07813,95.625,3.82125,263.75,0
88.108022213,58.06641,95.71875,3.82,261.5625,0
89.162815571,58.05469,95.625,3.82,251.5625,0
90.217746735,58.04297,95.625,3.816875,286.875,0
91.272256851,58.03125,95.8125,3.82,258.75,0
92.151395321,58.03125,95.53125,3.81875,255,0
93.206169605,58.01953,95.625,3.816875,260.9375,0
94.261080265,58.00781,95.625,3.818125,275,0
95.139857292,57.99219,95.53125,3.8175,251.5625,0
96.194623470,57.98047,95.53125,3.81625,270.3125,0
97.249594212,57.96875,95.34375,3.819375,251.25,0
98.128509998,57.96875,95.0625,3.81875,265.3125,0
99.183914185,57.95703,95.0625,3.818125,273.4375,0
100.238061905,57.94531,95.34375,3.81875,258.4375,0
101.117069244,57.93359,95.0625,3.81875,270.9375,0
102.171947479,57.92188,94.96875,3.82,267.8125,0
103.227011681,57.91016,95.0625,3.819375,270.3125,0
104.105811596,57.91016,95.0625,3.815625,259.6875,0
105.160606861,57.89453,95.25,3.8175,275.3125,0
106.215375900,57.88281,95.0625,3.81875,271.25,0
107.270129204,57.87109,95.15625,3.81875,271.25,0
108.148983955,57.85938,95.15625,3.816875,267.8125,0
109.204033375,57.85938,95.0625,3.81875,277.1875,0
110.258613586,57.84766,95.25,3.819375,263.75,0
111.137694359,57.83594,95.34375,3.81625,268.4375,0
112.192570686,57.82422,95.25,3.81625,260.9375,0
113.247330189,57.8125,95.0625,3.818125,261.5625,0
114.126723290,57.79688,95.0625,3.816875,278.4375,0
115.180982113,57.79688,95.0625,3.816875,273.125,0
116.235911846,57.78516,95.15625,3.8175,256.875,0
117.114880562,57.77344,95.25,3.816875,265.625,0
118.169960499,57.76172,95.0625,3.8175,275,0
119.224373341,57.75,95.0625,3.8175,273.4375,0
120.103346825,57.75,94.875,3.815625,273.125,0
121.158294201,57.73828,94.96875,3.81875,254.0625,0
122.213330746,57.72656,94.6875,3.81875,255.3125,0
123.267978191,57.71484,94.96875,3.81875,263.125,0
124.146858692,57.69922,94.96875,3.8175,259.375,0
125.201493740,57.6875,94.6875,3.81875,263.75,0
126.256438255,57.6875,94.96875,3.81625,274.0625,0
127.135373116,57.67578,94.96875,3.818125,265.625,0
128.190358162,57.66406,94.96875,3.816875,250,0
129.244962692,57.65234,94.96875,3.818125,257.1875,0
130.123952389,57.64063,94.96875,3.818125,268.75,0
131.178812981,57.64063,94.96875,3.819375,271.5625,0
132.233495235,57.62891,94.875,3.81625,256.25,0
133.112689972,57.61719,94.96875,3.8175,273.125,0
134.167322636,57.60156,94.6875,3.8175,272.5,0
135.222208023,57.58984,94.40625,3.816875,258.125,0
136.101212978,57.58984,94.5,3.815,267.1875,0
137.155887127,57.57813,94.6875,3.816875,256.25,0
138.210735321,57.56641,94.6875,3.815625,262.5,0
139.265451908,57.55469,94.6875,3.815,258.125,0
140.144584179,57.54297,94.6875,3.81625,261.875,0
141.199396133,57.53125,94.6875,3.815,273.125,0
142.254699707,57.51953,94.5,3.814375,271.25,0
143.133347988,57.51953,94.59375,3.819375,265,0
144.187846184,57.50391,94.59375,3.81625,269.6875,0
145.242798805,57.49219,94.59375,3.81625,264.6875,0
146.121767998,57.48047,94.78125,3.8175,254.0625,0
147.176485539,57.46875,94.59375,3.815,285,0
148.231546402,57.46875,94.59375,3.81875,253.125,0
149.110262394,57.45703,94.6875,3.815625,250.9375,0
150.165153980,57.44531,94.6875,3.810625,263.125,0
151.219915390,57.43359,94.6875,3.81625,260.625,0
152.098832130,57.42188,94.6875,3.81625,267.8125,0
153.153706551,57.42188,94.6875,3.81375,265,0
