Time (s),Percentage (%),Time To Empty (minutes),Voltage (V),Current (mA),Is Charger Connected (Boolean)
0.917713165,51.54688,85.78125,3.78625,263.125,0
1.796447277,51.53516,85.78125,3.78625,260.3125,0
2.851380825,51.52344,85.59375,3.784375,254.0625,0
3.906216145,51.52344,85.78125,3.785,248.75,0
4.785296917,51.51172,85.5,3.783125,253.4375,0
5.839855671,51.5,85.40625,3.78375,262.8125,0
6.894741535,51.48828,85.6875,3.785,262.1875,0
7.949804306,51.47656,85.6875,3.785,265,0
8.828531742,51.47656,85.6875,3.785,262.8125,0
9.883327007,51.46484,85.40625,3.784375,272.1875,0
10.938212395,51.44922,84.9375,3.784375,274.6875,0
11.817064285,51.4375,85.03125,3.7825,256.25,0
12.871821403,51.42578,85.125,3.781875,262.5,0
13.926784992,51.41406,85.21875,3.786875,262.8125,0
14.805806637,51.41406,85.21875,3.7825,256.5625,0
15.860685825,51.40234,85.3125,3.784375,255.3125,0
16.915345669,51.39063,85.40625,3.78625,253.75,0
17.794343948,51.37891,85.59375,3.783125,268.75,0
18.848984718,51.36719,85.3125,3.78375,260.9375,0
19.903781891,51.35156,85.21875,3.783125,255.625,0
20.782777309,51.35156,85.125,3.784375,266.5625,0
21.837674141,51.33984,85.125,3.78375,268.4375,0
22.892480850,51.32813,85.125,3.783125,271.875,0
23.947259903,51.31641,85.21875,3.783125,255.3125,0
24.826276779,51.30469,84.9375,3.785,281.25,0
25.881093025,51.30469,85.125,3.785625,273.125,0
26.935748577,51.29297,84.84375,3.784375,272.5,0
27.814740181,51.28125,84.9375,3.784375,256.875,0
28.869501114,51.26953,84.9375,3.783125,268.4375,0
29.924431324,51.25391,85.125,3.779375,265.9375,0
30.803445339,51.25391,85.03125,3.784375,243.75,0
31.858093739,51.24219,84.9375,3.784375,242.5,0
32.913012505,51.23047,84.84375,3.783125,274.6875,0
33.792007923,51.21875,84.65625,3.7825,270.625,0
34.846670151,51.20703,84.65625,3.783125,261.25,0
35.901644230,51.19531,84.65625,3.78375,264.0625,0
36.780690193,51.19531,84.65625,3.78375,274.375,0
37.835402966,51.18359,84.75,3.78375,264.6875,0
38.890058994,51.17188,84.75,3.7825,244.375,0
39.945175648,51.15625,84.9375,3.781875,251.25,0
40.823851585,51.14453,84.9375,3.781875,261.5625,0
41.878635883,51.14453,85.21875,3.783125,262.8125,0
42.933595657,51.13281,85.21875,3.78375,273.75,0
43.812611580,51.12109,84.9375,3.783125,258.4375,0
44.867376327,51.10938,84.9375,3.781875,277.5,0
45.922171593,51.09766,84.75,3.781875,263.125,0
46.801196098,51.09766,84.84375,3.78125,274.375,0
47.855839729,51.08594,84.75,3.78375,264.0625,0
48.910613060,51.07422,84.46875,3.783125,271.875,0
49.789754868,51.05859,84.5625,3.7825,254.6875,0
50.844556332,51.04688,84.65625,3.78125,263.4375,0
51.899186611,51.03516,84.65625,3.78,263.125,0
52.778198719,51.03516,84.65625,3.781875,260.3125,0
53.833007336,51.02344,84.9375,3.781875,254.6875,0
54.887816429,51.01172,84.84375,3.7825,253.125,0
55.942755699,51,84.84375,3.7825,264.375,0
56.821727753,50.98828,84.65625,3.780625,264.6875,0
57.876528263,50.98828,84.75,3.78,259.6875,0
58.931195259,50.97656,84.84375,3.78125,260,0
59.810178757,50.96094,84.5625,3.7825,263.125,0
60.865168095,50.94922,84.5625,3.78375,258.75,0
61.919811249,50.9375,84.75,3.78125,279.0625,0
62.798950195,50.9375,84.5625,3.7825,258.75,0
63.853696823,50.92578,84.5625,3.780625,260.9375,0
64.908504486,50.91406,84.84375,3.7825,272.1875,0
65.787494659,50.90234,84.84375,3.78,252.8125,0
66.842124462,50.89063,84.84375,3.78125,254.0625,0
67.896954536,50.89063,84.75,3.781875,264.375,0
68.775974750,50.87891,84.84375,3.7825,272.1875,0
69.830756664,50.86328,84.75,3.783125,253.4375,0
70.885644436,50.85156,84.75,3.7825,250,0
71.940346718,50.83984,84.65625,3.78125,257.8125,0
72.819302082,50.83984,84.65625,3.78125,275.3125,0
73.874290943,50.82813,84.1875,3.778125,282.5,0
74.928941250,50.81641,84.28125,3.779375,254.375,0
75.808105946,50.80469,84.28125,3.78,257.1875,0
76.862819195,50.79297,84.375,3.781875,266.5625,0
77.917601585,50.78125,84.65625,3.78125,260.9375,0
78.796617031,50.78125,84.375,3.780625,262.8125,0
79.851270199,50.76563,84.09375,3.78,252.8125,0
80.906494617,50.75391,84,3.780625,259.375,0
81.785136700,50.74219,84.09375,3.78125,261.25,0
82.840264797,50.73047,84.1875,3.778125,255.625,0
83.894807816,50.71875,84.1875,3.77875,268.75,0
84.949623108,50.71875,84.09375,3.7825,268.4375,0
85.828622341,50.70703,84.09375,3.780625,286.5625,0
86.883315563,50.69531,84.1875,3.77875,255.625,0
87.938417435,50.68359,84.28125,3.779375,251.25,0
88.817292690,50.66797,84.375,3.78375,252.5,0
89.872406960,50.66797,84.375,3.780625,275,0
90.926767826,50.65625,84.46875,3.78,257.8125,0
91.805747509,50.64453,84.46875,3.77875,253.125,0
92.860600948,50.63281,84.375,3.780625,259.0625,0
93.915371895,50.62109,84.46875,3.77875,264.0625,0
94.794296741,50.62109,84.28125,3.77875,263.75,0
95.849369526,50.60938,84.28125,3.78,246.875,0
96.903771877,50.59766,84.28125,3.78,253.75,0
97.783236980,50.58594,84.375,3.78125,267.1875,0
98.837754726,50.57031,84.375,3.780625,257.8125,0
99.892373562,50.55859,84,3.776875,270,0
100.947353840,50.55859,83.90625,3.780625,250.3125,0
101.826385498,50.54688,83.625,3.775625,283.4375,0
102.881371498,50.53516,83.8125,3.77875,267.5,0
103.935863972,50.52344,83.8125,3.7775,263.75,0
104.814898968,50.51172,83.625,3.78,274.0625,0
105.869682312,50.51172,83.53125,3.78,263.125,0
106.924349308,50.5,83.625,3.77875,264.6875,0
107.803319454,50.48828,83.71875,3.7775,253.125,0
108.858318329,50.47266,83.625,3.77625,257.8125,0
109.913340569,50.46094,83.34375,3.779375,269.375,0
110.792167664,50.44922,83.34375,3.7775,257.1875,0
111.846901417,50.44922,83.53125,3.77875,272.8125,0
112.901645184,50.4375,83.53125,3.7775,253.125,0
113.780653954,50.42578,83.34375,3.77875,291.25,0
114.835289001,50.41406,83.53125,3.78125,252.5,0
115.890099049,50.40234,83.53125,3.78,252.8125,0
116.944908142,50.39063,83.4375,3.7775,269.0625,0
117.824110031,50.39063,83.34375,3.7775,271.5625,0
118.878803253,50.375,83.34375,3.776875,268.4375,0
119.933601856,50.36328,83.34375,3.7775,270.625,0
120.812578678,50.35156,83.53125,3.775625,255,0
121.867250919,50.33984,83.4375,3.7775,245.3125,0
122.922175407,50.33984,83.34375,3.778125,255.9375,0
123.801274300,50.32813,83.25,3.776875,267.8125,0
124.856174946,50.31641,83.34375,3.77625,260.9375,0
125.910780430,50.30469,83.34375,3.7775,263.75,0
126.789813995,50.29297,82.96875,3.78,266.875,0
127.844420910,50.29297,82.96875,3.77875,257.8125,0
128.899214268,50.27734,82.875,3.775625,280,0
129.778211594,50.26563,83.0625,3.7775,248.4375,0
130.833240509,50.25391,82.96875,3.77125,269.0625,0
131.887878895,50.24219,83.0625,3.776875,245.3125,0
132.942735195,50.23047,82.875,3.78,251.25,0
133.821741104,50.23047,82.875,3.776875,268.4375,0
134.876430988,50.21875,82.96875,3.7775,270.3125,0
135.931175709,50.20703,82.78125,3.775,260,0
136.810207367,50.19531,82.875,3.78,263.75,0
137.865199089,50.17969,82.96875,3.77875,255.625,0
138.919801712,50.16797,83.0625,3.776875,266.875,0
139.798803329,50.16797,82.96875,3.776875,267.5,0
140.853703022,50.15625,82.875,3.775625,265,0
141.908421993,50.14453,82.96875,3.778125,253.125,0
142.787362099,50.13281,82.78125,3.77625,268.4375,0
143.842179775,50.12109,82.6875,3.775625,275.625,0
144.896945953,50.12109,82.78125,3.77625,253.125,0
145.776160717,50.10938,82.78125,3.77875,257.1875,0
146.830816746,50.09766,82.96875,3.77875,257.8125,0
147.885696888,50.08203,83.15625,3.775625,258.125,0
149.819388866,50.07031,82.96875,3.775625,262.1875,0
150.874099731,50.05859,82.96875,3.7775,271.5625,0
151.928902626,50.04688,83.0625,3.7775,263.75,0
152.808136463,50.03516,82.875,3.775625,268.125,0
153.862906456,50.02344,82.96875,3.776875,259.375,0
154.917647839,50.01172,83.0625,3.77625,255,0
