Time (s),Percentage (%),Time To Empty (minutes),Voltage (V),Current (mA),Is Charger Connected (Boolean)
0.176896095,60.60547,99.75,3.84125,275,0
1.231642246,60.59375,99.5625,3.84,267.8125,0
2.286520958,60.58203,99.46875,3.83875,274.0625,0
3.165366650,60.58203,99.46875,3.84,273.4375,0
4.220450401,60.57031,99.46875,3.840625,269.0625,0
5.275097847,60.55859,99.5625,3.84,258.75,0
6.153900147,60.54688,99.46875,3.8375,262.5,0
7.208838940,60.53125,99.375,3.8375,274.0625,0
8.263531208,60.53125,99.375,3.840625,258.4375,0
9.142673969,60.51953,99.375,3.8375,263.125,0
10.197327137,60.50781,99.5625,3.84125,253.125,0
11.252110958,60.49609,99.09375,3.838125,263.4375,0
12.306889534,60.48438,99.375,3.84,251.875,0
13.186249733,60.47266,99.375,3.840625,256.875,0
14.240552425,60.47266,99.1875,3.840625,254.375,0
15.295318604,60.46094,99.375,3.83875,250.9375,0
16.174414635,60.44922,99.375,3.84,259.0625,0
17.229168892,60.43359,99.28125,3.840625,275,0
18.284482956,60.42188,99.375,3.840625,247.1875,0
19.163208485,60.42188,99.375,3.840625,269.6875,0
20.217655659,60.41016,99.28125,3.83875,261.875,0
21.272580147,60.39844,99.1875,3.84,259.6875,0
22.151570797,60.38672,99.28125,3.8375,260.9375,0
23.206341744,60.375,99.46875,3.839375,270,0
24.261427879,60.36328,99.28125,3.8375,263.125,0
25.140030384,60.36328,99.28125,3.8375,257.8125,0
26.194938183,60.35156,99.46875,3.838125,260.9375,0
27.249732971,60.33594,99.28125,3.83875,268.75,0
28.304403782,60.32422,99.28125,3.8375,268.4375,0
29.183375835,60.3125,99.28125,3.835625,263.75,0
30.238204956,60.3125,99.46875,3.8375,258.4375,0
31.293149471,60.30078,99.5625,3.835,278.125,0
32.172110558,60.28906,99.46875,3.835625,259.6875,0
33.227425575,60.27734,99.46875,3.838125,258.75,0
34.281692982,60.26563,99.46875,3.836875,253.125,0
35.160579681,60.26563,99.65625,3.83875,264.375,0
36.215534687,60.25391,99.5625,3.83875,265.625,0
37.270315170,60.23828,99.84375,3.836875,253.125,0
38.149370670,60.22656,99.46875,3.83875,277.5,0
39.204312801,60.21484,99.46875,3.839375,271.5625,0
40.258759499,60.20313,99.28125,3.8375,255,0
41.137876511,60.20313,99,3.836875,298.125,0
42.192648411,60.19141,98.90625,3.835625,279.375,0
43.247385979,60.17969,99.09375,3.8375,254.0625,0
44.302352905,60.16797,99.09375,3.835625,273.125,0
45.181165695,60.15625,99,3.83625,270.625,0
46.236055374,60.14063,99.1875,3.838125,269.375,0
47.290855885,60.14063,99,3.83875,268.75,0
48.170377255,60.12891,99,3.835,267.8125,0
49.224684715,60.11719,99.1875,3.8375,270.3125,0
50.279345512,60.10547,99.09375,3.836875,261.5625,0
51.158457756,60.09375,99,3.835625,264.6875,0
52.213118076,60.09375,99,3.83875,252.1875,0
53.268358707,60.08203,99.09375,3.83625,254.375,0
54.147040844,60.07031,98.90625,3.836875,262.8125,0
55.201688767,60.05859,99,3.836875,256.5625,0
56.256700516,60.04297,99,3.835625,255.625,0
57.135478973,60.04297,98.90625,3.8375,278.75,0
58.190293789,60.03125,98.90625,3.836875,267.8125,0
59.245211601,60.01953,98.71875,3.836875,265.9375,0
60.300035477,60.00781,98.90625,3.835625,253.125,0
61.179049492,59.99609,98.8125,3.834375,256.25,0
62.233846664,59.98438,98.53125,3.8375,266.875,0
63.288455963,59.97266,98.625,3.83625,273.125,0
64.167570114,59.97266,98.71875,3.83625,251.25,0
65.222413540,59.96094,98.53125,3.835,256.875,0
66.277188301,59.94531,98.4375,3.836875,250.625,0
67.156296253,59.93359,98.4375,3.836875,262.8125,0
68.210849762,59.92188,98.15625,3.836875,266.5625,0
69.265632629,59.91016,98.34375,3.836875,258.125,0
70.144785404,59.91016,98.4375,3.835625,266.875,0
71.199570179,59.89844,98.4375,3.83375,259.0625,0
72.254264355,59.88672,98.34375,3.835,258.75,0
73.309235096,59.875,98.4375,3.83375,290.625,0
74.188044548,59.875,98.53125,3.83625,255.625,0
75.242953301,59.86328,98.4375,3.83375,266.5625,0
76.297756195,59.84766,98.4375,3.831875,270.9375,0
77.176846504,59.83594,98.53125,3.8375,268.75,0
78.231774330,59.82422,98.53125,3.835,274.0625,0
79.286221981,59.8125,98.53125,3.834375,267.5,0
80.165344715,59.8125,98.4375,3.83625,265.625,0
81.220108032,59.80078,98.625,3.83375,251.875,0
82.275188923,59.78906,98.4375,3.8325,255.3125,0
83.153874397,59.77734,98.4375,3.836875,252.1875,0
84.208591938,59.76563,98.4375,3.831875,274.375,0
85.263540268,59.75,98.34375,3.835,268.125,0
86.142431259,59.75,98.15625,3.83375,267.1875,0
87.197225571,59.73828,98.0625,3.833125,277.1875,0
88.252192974,59.72656,98.0625,3.83375,270,0
89.306942463,59.71484,98.0625,3.835,255.3125,0
90.185877323,59.70313,98.15625,3.833125,275.9375,0
91.241179943,59.70313,97.96875,3.83375,272.1875,0
92.295394898,59.69141,97.96875,3.83375,254.0625,0
93.174484253,59.67969,98.15625,3.83375,266.875,0
94.229320049,59.66797,98.15625,3.836875,260.9375,0
95.284122467,59.65234,98.15625,3.836875,251.5625,0
96.163002014,59.64063,98.0625,3.83375,270,0
97.217915058,59.64063,98.15625,3.835,261.875,0
98.272607803,59.62891,97.59375,3.835625,263.75,0
99.151743889,59.61719,97.5,3.833125,278.4375,0
100.206465244,59.60547,97.875,3.83375,261.5625,0
101.261136055,59.59375,97.875,3.83375,259.375,0
102.140136719,59.59375,97.6875,3.8325,263.4375,0
103.194930077,59.58203,97.875,3.835,252.5,0
104.249838352,59.57031,97.875,3.831875,271.25,0
105.304615021,59.55469,97.6875,3.8325,260.625,0
106.184010506,59.54297,97.875,3.835625,251.25,0
107.238394737,59.53125,97.40625,3.835625,260,0
108.293097019,59.51953,97.3125,3.83375,259.0625,0
109.172227860,59.51953,97.21875,3.834375,265,0
110.226931095,59.50781,97.21875,3.8325,265.9375,0
111.282101154,59.49609,97.03125,3.834375,252.5,0
112.160939217,59.48438,97.125,3.8325,266.25,0
113.215508938,59.47266,97.3125,3.8325,258.4375,0
114.270461559,59.45703,97.21875,3.833125,271.5625,0
115.149269581,59.45703,97.21875,3.830625,255.3125,0
116.204083920,59.44531,97.125,3.831875,255.625,0
117.258968830,59.43359,97.21875,3.82875,260.9375,0
118.138047695,59.42188,97.5,3.834375,274.6875,0
119.192821026,59.42188,97.21875,3.83375,251.5625,0
120.247520447,59.41016,97.59375,3.833125,253.125,0
121.302700996,59.39844,97.3125,3.83,257.1875,0
122.181324005,59.38672,97.59375,3.833125,270.625,0
123.236182213,59.375,97.59375,3.83375,257.5,0
124.290969372,59.35938,97.59375,3.83,274.0625,0
125.170052528,59.35938,97.59375,3.83125,255.9375,0
126.225053787,59.34766,97.40625,3.8325,248.125,0
127.279447079,59.33594,97.21875,3.83,259.0625,0
128.158599377,59.32422,97.40625,3.83,260.625,0
129.213383675,59.3125,97.21875,3.830625,269.6875,0
130.268064976,59.30078,97.40625,3.830625,262.1875,0
131.147035599,59.30078,97.59375,3.831875,272.5,0
133.256740093,59.27734,96.9375,3.83,267.8125,0
134.135706902,59.26172,97.125,3.83375,243.125,0
135.190543175,59.25,97.21875,3.828125,259.0625,0
136.245358944,59.23828,97.21875,3.8325,260.625,0
137.299995422,59.23828,97.21875,3.83125,256.25,0
138.179148197,59.22656,97.21875,3.83375,255.3125,0
139.233996868,59.21484,97.21875,3.83,274.0625,0
140.288581371,59.20313,97.40625,3.828125,254.375,0
141.167755127,59.19141,97.40625,3.830625,265,0
142.222523212,59.19141,97.5,3.829375,273.4375,0
143.277307987,59.17969,97.59375,3.831875,255,0
144.156148911,59.16406,97.40625,3.82875,260,0
145.210982800,59.15234,97.40625,3.831875,257.8125,0
146.265795708,59.14063,97.5,3.829375,265,0
147.144876003,59.14063,97.40625,3.83125,270.625,0
148.199688435,59.12891,97.59375,3.83125,258.75,0
149.254346848,59.11719,97.59375,3.828125,257.5,0
150.133543968,59.10547,97.40625,3.82875,271.25,0
151.188172817,59.09375,97.5,3.83,263.4375,0
152.243068218,59.08203,97.40625,3.82875,275.3125,0
153.297902107,59.08203,97.40625,3.830625,251.5625,0
154.176978588,59.06641,97.40625,3.83,258.125,0
155.231846809,59.05469,97.40625,3.830625,281.5625,0
156.286368847,59.04297,97.3125,3.833125,260.9375,0
157.165460587,59.03125,97.21875,3.82875,265,0
158.220253944,59.01953,97.125,3.829375,265.625,0
159.274923325,59.01953,97.03125,3.831875,263.75,0
160.154024601,59.00781,97.125,3.83,259.6875,0
161.208726883,58.99609,97.40625,3.831875,258.125,0
162.263652802,58.98438,97.125,3.82875,263.75,0
163.142597675,58.98438,97.125,3.830625,261.875,0
164.197881699,58.96875,97.3125,3.82875,273.75,0
166.307028771,58.94531,97.03125,3.83125,254.0625,0
167.186036110,58.93359,97.125,3.83,261.25,0
168.240890503,58.92188,96.84375,3.83,263.4375,0
169.295923710,58.91016,96.84375,3.82875,264.0625,0
170.174617291,58.91016,96.84375,3.82875,260,0
171.229404926,58.89844,96.46875,3.828125,245.625,0
172.284203053,58.88672,96.375,3.82875,281.25,0
173.163845062,58.87109,96.375,3.82625,261.5625,0
174.217904568,58.85938,96.65625,3.82625,256.5625,0
175.272655487,58.85938,96.5625,3.829375,270,0
176.151785374,58.84766,96.5625,3.828125,259.0625,0
177.206603527,58.83594,96.65625,3.82625,266.5625,0
178.261222363,58.82422,96.65625,3.829375,272.8125,0
179.140765190,58.8125,96.46875,3.83,264.0625,0
180.195019722,58.80078,96.28125,3.8275,269.0625,0
181.250009537,58.80078,96,3.8275,315.625,0
182.304757595,58.78906,96.09375,3.83125,257.1875,0
183.183835506,58.77344,96.09375,3.826875,271.5625,0
184.238800526,58.76172,96.28125,3.82625,257.1875,0
185.293207169,58.75,96,3.828125,273.75,0
186.172359467,58.73828,96,3.828125,254.0625,0
187.227120876,58.73828,96,3.8275,258.75,0
188.281817436,58.72656,96.09375,3.82875,245.9375,0
189.160853863,58.71484,96,3.826875,255.625,0
190.215640545,58.70313,95.71875,3.82625,312.1875,0
191.270529270,58.69141,95.8125,3.826875,266.875,0
192.149462223,58.69141,95.71875,3.82625,256.875,0
193.204216003,58.67578,95.8125,3.82625,256.875,0
194.259169579,58.66406,96,3.825625,261.5625,0
195.137998581,58.65234,95.8125,3.829375,259.375,0
196.192938805,58.64063,96,3.82625,259.6875,0
197.247612953,58.62891,96.09375,3.825625,268.125,0
198.302570343,58.61719,96.28125,3.825,255.3125,0
199.181468487,58.61719,96.09375,3.82625,280.9375,0
200.236307144,58.60547,96.09375,3.8275,260,0
201.291130066,58.59375,96.1875,3.82625,256.25,0
202.170170784,58.57813,96.375,3.8275,253.4375,0
203.224800110,58.56641,96.46875,3.825,257.1875,0
204.279542446,58.56641,96.1875,3.828125,269.375,0
205.158694267,58.55469,96.1875,3.82625,260.625,0
206.213477135,58.54297,96.09375,3.825625,260.3125,0
207.268526077,58.53125,96,3.82625,257.1875,0
208.147176266,58.51953,96.09375,3.825625,275.3125,0
209.201999664,58.51953,96,3.82625,269.6875,0
210.256893158,58.50781,95.8125,3.82625,268.75,0
211.135863781,58.49609,95.8125,3.825,261.875,0
212.190764427,58.48047,96.09375,3.82625,255.625,0
213.245329380,58.46875,96,3.8275,255.3125,0
214.300104141,58.45703,95.90625,3.82625,258.75,0
215.179296494,58.45703,96,3.8275,261.25,0
216.234521866,58.44531,96,3.825625,275.3125,0
217.288729191,58.43359,95.625,3.826875,275.9375,0
218.167753220,58.42188,95.90625,3.825,265.3125,0
219.222498894,58.41016,95.625,3.82625,255.9375,0
220.277463436,58.39844,95.4375,3.823125,260.9375,0
221.156271935,58.39844,95.4375,3.823125,260.625,0
222.211515427,58.38281,95.34375,3.82375,277.5,0
223.266029358,58.37109,95.34375,3.820625,262.1875,0
224.145027638,58.35938,95.53125,3.825625,248.125,0
225.199791431,58.34766,95.8125,3.825,253.75,0
226.254475594,58.34766,95.53125,3.825625,263.75,0
227.133718491,58.33594,95.53125,3.826875,255.3125,0
228.188357830,58.32422,95.53125,3.825,245,0
229.243262291,58.3125,95.34375,3.821875,271.25,0
230.297990322,58.30078,95.4375,3.823125,261.25,0
231.176960945,58.28516,95.625,3.8275,253.125,0
232.231662273,58.28516,95.625,3.823125,252.8125,0
233.286473751,58.27344,95.71875,3.825625,266.875,0
234.165582180,58.26172,95.34375,3.8275,260.9375,0
235.220400810,58.25,95.34375,3.82125,263.4375,0
236.275686741,58.23828,95.53125,3.824375,266.25,0
237.154053688,58.23828,95.625,3.823125,252.5,0
238.208843708,58.22656,95.34375,3.823125,275,0
239.263760090,58.21484,95.34375,3.824375,257.1875,0
240.142792225,58.20313,95.25,3.823125,264.6875,0
241.197622776,58.1875,95.25,3.821875,255.625,0
242.252542973,58.17578,94.96875,3.821875,271.5625,0
243.307055950,58.16406,95.0625,3.821875,263.75,0
244.186145783,58.16406,95.25,3.823125,251.5625,0
245.240836620,58.15234,94.96875,3.823125,264.6875,0
246.295604229,58.14063,95.15625,3.824375,252.8125,0
247.174639702,58.12891,95.25,3.824375,265.9375,0
248.229428291,58.11719,95.0625,3.825,266.5625,0
249.284314632,58.10547,95.15625,3.821875,254.0625,0
250.163589954,58.10547,95.15625,3.82375,275,0
251.218482971,58.08984,95.15625,3.823125,285,0
252.272949696,58.07813,94.875,3.825,270.625,0
253.151950359,58.06641,94.96875,3.82125,258.125,0
254.206742764,58.06641,94.96875,3.823125,271.25,0
255.261571407,58.05469,94.78125,3.825625,255.9375,0
256.140605927,58.04297,94.96875,3.82,262.5,0
257.195266247,58.03125,94.875,3.82375,259.6875,0
258.250057221,58.01953,94.96875,3.8225,265.625,0
259.304935932,58.00781,94.96875,3.82375,257.5,0
260.183841229,58.00781,94.96875,3.8225,271.25,0
261.238586903,57.99219,94.875,3.82375,253.75,0
262.293361664,57.98047,94.6875,3.820625,254.375,0
263.172537804,57.96875,94.6875,3.8225,261.25,0
264.227259636,57.95703,94.78125,3.8225,255.3125,0
265.282230377,57.94531,94.78125,3.819375,267.5,0
266.161419869,57.94531,94.78125,3.82375,263.4375,0
267.215714932,57.93359,94.875,3.825,249.0625,0
268.270650864,57.92188,94.6875,3.825,259.375,0
269.149643898,57.91016,94.78125,3.818125,266.875,0
270.204516411,57.89453,94.6875,3.82375,255.625,0
271.259228706,57.88281,94.6875,3.821875,267.5,0
272.138121605,57.88281,94.78125,3.821875,265.3125,0
273.193063736,57.87109,95.0625,3.823125,250.625,0
274.248186588,57.85938,94.96875,3.82125,263.75,0
275.302533150,57.84766,94.875,3.819375,280,0
276.181497097,57.83594,95.0625,3.82375,261.25,0
277.236280918,57.82422,94.96875,3.821875,271.875,0
278.291198731,57.82422,94.96875,3.819375,278.125,0
279.170192242,57.8125,95.0625,3.82375,256.875,0
280.225216389,57.79688,95.0625,3.819375,267.8125,0
281.279903889,57.78516,95.0625,3.819375,266.5625,0
282.158676624,57.77344,95.15625,3.82125,255.9375,0
283.213662624,57.77344,94.96875,3.82125,274.375,0
284.268232822,57.76172,95.0625,3.820625,277.1875,0
285.147353649,57.75,95.15625,3.82125,257.1875,0
286.202188015,57.73828,95.0625,3.820625,256.5625,0
287.256834507,57.72656,94.96875,3.8175,274.6875,0
288.135960579,57.72656,94.96875,3.82,274.0625,0
289.191174030,57.71484,94.78125,3.821875,262.5,0
290.245482922,57.69922,94.6875,3.820625,302.1875,0
291.300318718,57.6875,94.5,3.82125,271.5625,0
292.179358482,57.67578,94.125,3.819375,273.75,0
293.234154224,57.66406,94.21875,3.82125,263.75,0
294.288872242,57.65234,94.40625,3.82,271.5625,0
295.168214321,57.65234,94.21875,3.820625,255.9375,0
296.222671032,57.64063,94.125,3.82,270,0
297.277592659,57.62891,94.21875,3.81875,264.375,0
298.156548500,57.61719,94.21875,3.82125,265.625,0
299.211345673,57.60156,94.40625,3.82,260.625,0
300.266414166,57.60156,94.59375,3.819375,267.8125,0
301.145023823,57.58984,94.40625,3.82,259.0625,0
302.199923992,57.57813,94.59375,3.81875,268.75,0
303.254781246,57.56641,94.59375,3.8175,260,0
304.134164810,57.55469,94.6875,3.819375,254.375,0
305.188386440,57.55469,94.59375,3.816875,272.1875,0
306.243178368,57.54297,94.78125,3.819375,260,0
307.298171997,57.53125,94.59375,3.819375,271.5625,0
308.177120686,57.51953,94.5,3.81875,264.0625,0
309.232414246,57.50391,94.6875,3.82,263.75,0
310.286738873,57.49219,94.78125,3.81875,269.375,0
311.165561676,57.49219,94.78125,3.819375,259.375,0
312.220525742,57.48047,94.78125,3.81875,254.6875,0
313.275218487,57.46875,94.78125,3.818125,265.9375,0
314.154174805,57.45703,94.78125,3.819375,269.6875,0
315.209239006,57.44531,94.78125,3.81875,254.375,0
316.263792515,57.44531,94.78125,3.81875,257.8125,0
317.142880917,57.43359,94.59375,3.81875,266.5625,0
318.197574616,57.42188,94.6875,3.8175,259.0625,0
319.252379894,57.40625,94.6875,3.816875,264.6875,0
320.307304382,57.39453,94.6875,3.8175,266.875,0
321.186117172,57.38281,94.78125,3.818125,265.9375,0
322.241033077,57.38281,94.78125,3.819375,260,0
323.295859814,57.37109,94.40625,3.8175,295.625,0
324.175330639,57.35938,94.3125,3.81875,261.25,0
325.229690075,57.34766,94.21875,3.81875,270,0
326.284454346,57.33594,94.3125,3.816875,271.5625,0
327.163468838,57.33594,94.5,3.818125,250,0
328.218303680,57.32422,94.3125,3.818125,268.75,0
329.272896767,57.30859,94.3125,3.816875,275.625,0
330.152050018,57.29688,94.3125,3.816875,263.4375,0
331.206859589,57.28516,94.03125,3.81875,261.5625,0
332.261605740,57.27344,93.75,3.81625,299.375,0
333.140501022,57.27344,93.9375,3.81875,256.875,0
334.195318699,57.26172,93.65625,3.819375,256.25,0
335.250082016,57.25,93.65625,3.8175,273.75,0
336.304985523,57.23828,93.65625,3.81875,258.75,0
337.184041023,57.22656,93.46875,3.818125,240.3125,0
338.238887787,57.21094,93.65625,3.81875,270,0
339.293890476,57.19922,93.28125,3.81625,273.125,0
340.172475338,57.19922,93.1875,3.8175,252.1875,0
341.227362156,57.1875,93.375,3.81625,262.5,0
342.282228947,57.17578,93.375,3.815625,253.125,0
343.161250591,57.16406,93.5625,3.816875,262.8125,0
344.215848446,57.16406,93.46875,3.815625,273.125,0
345.270635128,57.15234,93.46875,3.816875,261.25,0
347.204578400,57.12891,93.5625,3.815,280,0
348.259268761,57.11328,93.5625,3.814375,262.1875,0
349.138265610,57.10156,93.75,3.815,261.5625,0
350.193031788,57.10156,93.84375,3.815,281.25,0
351.247943401,57.08984,93.65625,3.815,261.5625,0
352.302654743,57.07813,93.75,3.818125,265.625,0
353.181884289,57.06641,93.84375,3.81,267.8125,0
354.236677170,57.05469,93.84375,3.81375,256.25,0
355.291231155,57.04297,93.75,3.815625,263.75,0
356.170305252,57.04297,93.9375,3.816875,248.4375,0
357.225012779,57.03125,93.75,3.815,258.75,0
358.279953003,57.01563,93.65625,3.815,255.625,0
359.158838272,57.00391,93.75,3.8175,270.3125,0
360.213572025,56.99219,93.75,3.81625,257.8125,0
361.268551827,56.98047,93.65625,3.816875,260.9375,0
362.147373199,56.98047,93.28125,3.815,269.375,0
363.202211380,56.96875,93.1875,3.8125,276.25,0
364.257131100,56.95703,93.09375,3.814375,261.25,0
365.135963917,56.94531,93.09375,3.81375,252.5,0
366.190934658,56.93359,93.09375,3.815,252.5,0
367.245897293,56.93359,93.09375,3.8175,257.5,0
368.300399304,56.91797,93.09375,3.814375,292.5,0
369.179360867,56.90625,93.1875,3.816875,273.75,0
370.234245777,56.89453,93.1875,3.815,248.125,0
371.289125443,56.88281,93.1875,3.81125,265.625,0
372.168005943,56.87109,93.375,3.815,268.4375,0
373.223142624,56.87109,93.375,3.81625,270.3125,0
374.277549744,56.85938,93.5625,3.815,260.625,0
375.156704903,56.84766,93.5625,3.814375,267.5,0
376.211482048,56.83594,93.46875,3.813125,255.625,0
377.266123772,56.82031,93.5625,3.81375,260.3125,0
378.145126820,56.82031,93.65625,3.814375,266.5625,0
379.199954987,56.80859,93.46875,3.81375,270.9375,0
380.254869461,56.79688,93.375,3.8125,260,0
381.133826256,56.78516,93.46875,3.816875,251.25,0
382.188543320,56.77344,93.46875,3.81625,256.25,0
383.243392944,56.76172,93.46875,3.8125,268.4375,0
384.298115730,56.76172,93.5625,3.811875,265.625,0
385.177240849,56.75,93.5625,3.81375,251.5625,0
386.232031822,56.73828,93.46875,3.811875,269.375,0
387.286686421,56.72266,93.5625,3.81125,272.5,0
388.166019440,56.71094,93.46875,3.813125,260.625,0
389.220469475,56.71094,93.46875,3.8125,268.4375,0
390.275453568,56.69922,93.75,3.81125,278.4375,0
391.154386997,56.6875,93.46875,3.814375,266.5625,0
392.209086418,56.67578,93.5625,3.811875,263.125,0
393.264078617,56.66406,93.46875,3.814375,269.375,0
394.142855644,56.66406,93.46875,3.815,264.6875,0
395.197782040,56.65234,93.46875,3.810625,261.25,0
396.252529621,56.64063,93.46875,3.81125,267.1875,0
397.307704449,56.625,93.28125,3.815,263.125,0
398.186402798,56.61328,93.46875,3.810625,260.9375,0
399.241218090,56.60156,93.5625,3.814375,266.25,0
400.295967579,56.60156,93.375,3.813125,266.875,0
401.175036430,56.58984,93.375,3.813125,250.3125,0
402.230074406,56.57813,93.5625,3.811875,258.75,0
403.284484387,56.56641,93.46875,3.80875,258.75,0
404.163565159,56.55469,93.46875,3.813125,262.1875,0
405.218319893,56.55469,93.5625,3.81375,267.5,0
406.273017407,56.54297,93.28125,3.811875,262.5,0
407.152051926,56.52734,93.28125,3.8125,255.3125,0
408.206830025,56.51563,93.1875,3.8125,285.9375,0
409.261729240,56.50391,93.28125,3.8125,260.625,0
410.140707970,56.49219,93.46875,3.815,255.3125,0
411.195510864,56.49219,93.1875,3.810625,273.4375,0
