Time (s),W,X,Y,Z
0.000000000,0.8953968,-0.4267438,-0.05856274,0.09670723
0.032776356,0.8948614,-0.4279344,-0.05801112,0.09673414
0.068073273,0.8943321,-0.4291983,-0.05734895,0.09642462
0.100849628,0.8937312,-0.4306329,-0.05645599,0.09612677
0.133625984,0.8930286,-0.4322242,-0.05537039,0.09614556
0.166401863,0.8924065,-0.433583,-0.05449596,0.0963043
0.199178219,0.8921602,-0.434137,-0.05403951,0.09634585
0.234476090,0.8919739,-0.4345562,-0.05388562,0.09626719
0.267251968,0.8917082,-0.4350904,-0.05372113,0.0964081
0.300028324,0.8913308,-0.4358625,-0.0535253,0.09651952
0.332804680,0.89096,-0.4366324,-0.05331663,0.09657904
0.368102551,0.8905051,-0.4375754,-0.05300585,0.09667706
0.400877953,0.8899353,-0.4387589,-0.05261371,0.09677432
0.433654785,0.8894648,-0.4397269,-0.05223987,0.09690814
0.466431141,0.8890657,-0.4404555,-0.05206013,0.09735715
0.499206543,0.8887717,-0.4409377,-0.05199215,0.09789459
0.534504414,0.8886223,-0.4410979,-0.05222156,0.09840507
0.567280769,0.8884421,-0.4413402,-0.05266543,0.09870886
0.600056648,0.8883473,-0.4414245,-0.05322703,0.09888432
0.632833004,0.8882653,-0.4415143,-0.05369024,0.09896938
0.668130875,0.8880646,-0.4418485,-0.05398253,0.09912093
0.700906754,0.8877883,-0.442359,-0.05400865,0.09930306
0.733683109,0.8873411,-0.4431867,-0.05374566,0.09975249
0.766459465,0.8869021,-0.4439735,-0.05321451,0.1004396
0.799235821,0.8865106,-0.4446636,-0.05266126,0.1011336
0.834532738,0.8862723,-0.4450748,-0.05215298,0.1016734
0.867309570,0.886376,-0.444856,-0.05194316,0.1018348
0.900085926,0.8865217,-0.4445323,-0.05165742,0.1021256
0.932861328,0.8866207,-0.4443182,-0.05130374,0.1023757
0.965638161,0.8866889,-0.4441624,-0.05097352,0.1026254
1.000935555,0.8867779,-0.443936,-0.05050617,0.1030652
1.033711433,0.8868318,-0.4437673,-0.04995886,0.1035952
1.066487789,0.8867949,-0.4437577,-0.04938513,0.1042246
1.099264145,0.8866258,-0.4439822,-0.04882098,0.1049701
1.134562016,0.8866912,-0.4437429,-0.04847086,0.105591
1.167337894,0.887029,-0.4430014,-0.04819907,0.1059903
1.200114250,0.8872355,-0.4425713,-0.04787063,0.1062075
1.232890606,0.8871747,-0.4426654,-0.04725544,0.1065985
1.265666485,0.8871371,-0.4426731,-0.04667688,0.1071316
1.300964356,0.8874419,-0.4420339,-0.04648932,0.1073284
1.333740711,0.8877133,-0.4414331,-0.04640335,0.1075936
1.366516113,0.8879454,-0.440881,-0.04637748,0.1079526
1.399292946,0.8881327,-0.4403881,-0.046312,0.1084499
1.434590340,0.8880839,-0.4403901,-0.04610459,0.108929
1.467366219,0.8880149,-0.4404649,-0.04581815,0.1093102
1.500142574,0.8878597,-0.4406597,-0.04552125,0.109907
1.532918930,0.8877473,-0.4407359,-0.04529495,0.1106009
1.565695286,0.8878803,-0.4403184,-0.0453148,0.1111865
1.600992680,0.888122,-0.439733,-0.04557021,0.1114689
1.633769035,0.8881688,-0.4395672,-0.04563665,0.111723
1.666545391,0.8880863,-0.4396682,-0.04559652,0.1119959
1.699321270,0.8881698,-0.4394487,-0.04550908,0.1122314
1.734619141,0.8882915,-0.4391394,-0.04535545,0.1125406
1.767395497,0.888401,-0.438842,-0.04524537,0.1128804
1.800170898,0.8885123,-0.4385258,-0.04531169,0.1132053
1.832947731,0.8886622,-0.4380991,-0.04543003,0.1136332
1.865724087,0.8887436,-0.4377927,-0.04548616,0.1141539
1.901021004,0.8888326,-0.4374466,-0.04545867,0.1147966
1.933797359,0.8886846,-0.4376867,-0.04453574,0.1153873
1.966573715,0.8874701,-0.4405887,-0.04128502,0.1148978
1.999350071,0.8811795,-0.4540164,-0.03391789,0.1134416
2.034647465,0.8544382,-0.5036263,-0.01435917,0.1127712
2.067423821,0.8037173,-0.5814654,0.02317466,0.1096668
2.100200176,0.7476245,-0.6504709,0.07169365,0.09712274
2.132976055,0.7311209,-0.6668718,0.1106086,0.07167715
2.165752411,0.7369667,-0.6559101,0.1470445,0.04083358
2.201050282,0.7439797,-0.638742,0.1873377,0.005921763
2.233825684,0.7436101,-0.6271942,0.2224396,-0.02863161
2.266602516,0.7369766,-0.6215448,0.2507659,-0.06551028
2.299378872,0.7264616,-0.6208192,0.2704527,-0.1015866
2.334675789,0.7191961,-0.6184256,0.2794148,-0.137338
2.367452145,0.7138612,-0.6177007,0.2760704,-0.1710574
2.400228500,0.7033195,-0.6257132,0.2558532,-0.2121113
2.433004856,0.688923,-0.638442,0.215827,-0.2604288
2.465780735,0.6817437,-0.639231,0.1585894,-0.3131869
2.501078606,0.7133615,-0.5906099,0.1142227,-0.3547902
2.533854962,0.6817407,-0.6414288,0.09523635,-0.3337011
2.566630840,0.6923708,-0.636807,0.1129347,-0.3145998
2.599407196,0.7152156,-0.6178114,0.1299829,-0.2941224
2.634705067,0.737066,-0.5998579,0.1451639,-0.2691828
2.667480469,0.7370694,-0.6115918,0.1445832,-0.2416768
2.700257301,0.7379879,-0.6242264,0.148,-0.2010941
2.733033657,0.7669892,-0.6012295,0.1590349,-0.1469215
2.765810013,0.8046327,-0.5609953,0.1652308,-0.08471604
2.801106930,0.827696,-0.5354486,0.1561255,-0.02160379
2.833883285,0.8312019,-0.5348722,0.1374958,0.02715694
2.866659641,0.8343304,-0.5326866,0.1115517,0.06573889
2.899435520,0.8365493,-0.530016,0.08538481,0.09276547
2.934733391,0.845743,-0.515828,0.05258241,0.1118165
2.967509747,0.8558812,-0.4988691,0.01522607,0.1224446
3.000285625,0.8561431,-0.4964635,-0.01766471,0.1298405
3.033061981,0.8663423,-0.4780774,-0.03953581,0.126323
3.065838337,0.8750238,-0.4622654,-0.04725562,0.1226318
3.101135254,0.8662645,-0.4785232,-0.03461982,0.1266114
3.133912087,0.8551223,-0.4970003,-0.02987604,0.1322564
3.166688442,0.8531654,-0.4988839,-0.029627,0.1377447
3.199463844,0.8482575,-0.5051451,-0.0276565,0.145432
3.234761715,0.8402027,-0.51654,-0.02175135,0.1529717
3.267538071,0.8348616,-0.5241885,-0.01713844,0.1567367
3.300314426,0.8352558,-0.5231861,-0.01727527,0.1579661
3.333090305,0.8366622,-0.5205918,-0.02000169,0.158771
3.365866661,0.8347156,-0.5233985,-0.02169715,0.1595648
3.401164532,0.834262,-0.524088,-0.02461136,0.1592498
3.433940411,0.8363562,-0.5207886,-0.02925845,0.1583008
3.466716766,0.8379936,-0.5180582,-0.03488807,0.1574579
3.499493122,0.8387333,-0.5165985,-0.04084373,0.1568823
3.534790039,0.8388709,-0.515841,-0.04759513,0.1567358
3.567566872,0.8383186,-0.5159262,-0.05534311,0.1568654
3.600343228,0.8372877,-0.5161698,-0.06449568,0.1580699
3.633118630,0.8348479,-0.5180228,-0.07370533,0.1608622
3.665895462,0.8306172,-0.522112,-0.0837167,0.1646
3.701192856,0.826609,-0.524778,-0.09727621,0.168792
3.733968735,0.8218982,-0.5275403,-0.1125348,0.1736324
3.766745091,0.8161156,-0.5311379,-0.129619,0.1779732
3.799521446,0.8098884,-0.5345917,-0.1490129,0.1808742
3.832298279,0.800441,-0.5414616,-0.1698051,0.1841399
3.867595196,0.7899053,-0.5475249,-0.1947902,0.1869506
3.900371551,0.7787693,-0.5536523,-0.219402,0.1883559
3.933147907,0.7670332,-0.5597603,-0.2429386,0.1895707
3.965923786,0.7551793,-0.5655486,-0.2642198,0.1915062
4.001221657,0.7423818,-0.5723984,-0.2832647,0.193954
4.033998013,0.7281925,-0.5809388,-0.2996145,0.1977487
4.066773415,0.7204816,-0.586158,-0.309114,0.195962
4.099550247,0.7120468,-0.5842305,-0.3299436,0.1985673
4.132326603,0.6972799,-0.5943647,-0.339568,0.2045791
4.167623520,0.6901914,-0.5914387,-0.3569048,0.2075643
4.200399876,0.6784875,-0.5950595,-0.3677385,0.2166913
4.233176231,0.6655442,-0.5995366,-0.3775464,0.2273617
4.265952587,0.6537895,-0.6026723,-0.386993,0.2370857
4.301249981,0.6448763,-0.6022769,-0.3968601,0.2460217
4.334026337,0.640125,-0.598428,-0.4055249,0.2535764
4.366802692,0.6364056,-0.5931355,-0.4138832,0.2617373
4.399578571,0.6353712,-0.5847677,-0.4225607,0.2691102
4.432354927,0.6432004,-0.5660521,-0.436724,0.2679141
4.467652798,0.65319,-0.542132,-0.457415,0.2585244
4.500428200,0.6599568,-0.5201498,-0.4769772,0.2510409
4.533205032,0.6625158,-0.5019473,-0.4934054,0.2496009
4.565981388,0.6611689,-0.4877021,-0.5065891,0.2549461
4.601278305,0.6549586,-0.4775651,-0.5169671,0.2689489
4.634054661,0.6453943,-0.4750097,-0.5197219,0.2904289
4.666831017,0.6363488,-0.4788642,-0.5125738,0.3156659
4.699606896,0.6302682,-0.4880144,-0.495767,0.3397745
4.732383251,0.62844,-0.4957331,-0.4767681,0.3586526
4.767681122,0.6288017,-0.5023604,-0.4552282,0.3763474
4.800457478,0.6282181,-0.5095875,-0.4333644,0.3930465
4.833233356,0.6250197,-0.5195079,-0.4090741,0.4107893
4.866009712,0.6202986,-0.5309817,-0.3830614,0.4279951
4.901307583,0.61654,-0.5400281,-0.358152,0.4433995
4.934082985,0.616325,-0.5429597,-0.3394686,0.4546724
4.966859817,0.6187516,-0.5419233,-0.3245876,0.4633964
4.999636173,0.6212328,-0.5398846,-0.3123484,0.4708084
5.032411575,0.6219959,-0.5395786,-0.3016126,0.4771096
5.067709446,0.6232463,-0.5388631,-0.2941118,0.4809539
5.100485802,0.6268784,-0.5357454,-0.2918006,0.4811242
5.133261681,0.6327769,-0.5296937,-0.2932674,0.4792075
5.166038036,0.6385565,-0.5225267,-0.29677,0.4772493
5.201335907,0.6414589,-0.5164295,-0.3009802,0.477357
5.234111786,0.6389827,-0.5136173,-0.3054428,0.4808646
5.266888142,0.6284014,-0.5159456,-0.3093633,0.4897283
5.299664497,0.6106285,-0.5264669,-0.3037933,0.5042844
5.332440853,0.5930543,-0.5386256,-0.2922194,0.519042
5.367737770,0.5764607,-0.5528038,-0.2741815,0.5324972
5.400514603,0.5619531,-0.5682619,-0.2512959,0.5429228
5.433290959,0.5559214,-0.5765893,-0.2346607,0.5477757
5.466066361,0.5630569,-0.569623,-0.2372162,0.5466744
5.501364231,0.5752929,-0.5536342,-0.2514055,0.544013
5.534140587,0.5849929,-0.5395393,-0.2634822,0.5421121
5.566916466,0.5927513,-0.5283381,-0.2747469,0.5391165
5.599692822,0.6004744,-0.5186073,-0.2856152,0.5343489
5.632469177,0.607676,-0.510333,-0.2958472,0.5285756
5.667766571,0.6088334,-0.5092126,-0.2992883,0.5263826
5.700542927,0.6064065,-0.5139318,-0.2950525,0.5269889
5.733319283,0.6015622,-0.521904,-0.2875542,0.5288473
5.766095638,0.5904968,-0.5357482,-0.2735646,0.534862
5.801392555,0.5727608,-0.5549309,-0.2529162,0.5446631
5.834169388,0.5534071,-0.5735483,-0.2317984,0.5546891
5.866945744,0.5283929,-0.5954161,-0.2075931,0.5655205
5.899721146,0.5001411,-0.6186644,-0.181836,0.5750447
5.932497978,0.4762118,-0.6379837,-0.1610463,0.580423
5.967795372,0.4613418,-0.6513505,-0.1514651,0.5801657
6.000571251,0.4595885,-0.6554487,-0.1547891,0.5760498
6.033347607,0.4608728,-0.6579526,-0.1622218,0.5700933
6.066123962,0.4602743,-0.6618161,-0.17075,0.5635771
6.101421356,0.4571773,-0.6675905,-0.177123,0.5572854
6.134197712,0.4498073,-0.6744124,-0.1808757,0.5538529
6.166974068,0.4417049,-0.6791249,-0.1850216,0.5532457
6.199749947,0.433513,-0.6816393,-0.1910059,0.5545977
6.232526302,0.4266489,-0.679752,-0.1993545,0.5592791
6.267824173,0.4213343,-0.6731669,-0.2089262,0.5677158
6.300600529,0.4165525,-0.6653753,-0.2149421,0.5780894
6.333375931,0.4084659,-0.6599155,-0.2137836,0.5904163
6.366152763,0.396754,-0.6581765,-0.2042793,0.6035626
6.398929119,0.3856724,-0.6590889,-0.1887819,0.6146933
6.434226036,0.3737715,-0.6632856,-0.1668425,0.6238094
6.467002392,0.3605137,-0.671019,-0.1418712,0.6294947
6.499778748,0.3485242,-0.6804647,-0.1140068,0.6317664
6.532554627,0.3396124,-0.6893452,-0.08879696,0.6310383
6.600628853,0.3176523,-0.7052403,-0.03949165,0.6299215
6.633404732,0.3054642,-0.7116416,-0.01621636,0.6297799
6.666181088,0.296905,-0.7146697,0.000884733,0.6306517
6.698957443,0.2920492,-0.7154177,0.01081598,0.6319774
6.734254360,0.2920187,-0.7149478,0.01469398,0.632445
6.767030716,0.2999623,-0.7128356,0.01230213,0.6311611
6.799807548,0.3095533,-0.7102063,0.007463086,0.6295679
6.832583904,0.3180593,-0.7086075,0.004659941,0.627152
6.867880821,0.3279687,-0.7069374,-0.001093794,0.6239412
6.900657177,0.3328818,-0.7044857,-0.007495035,0.6240682
6.933433533,0.3286754,-0.7046981,-0.00446846,0.6260836
6.966209412,0.3268175,-0.7048935,-0.001454417,0.6268502
6.998985767,0.3268096,-0.7022621,-0.002585824,0.6297973
7.034283638,0.3116439,-0.7058573,0.009298536,0.6333915
7.067059517,0.3055491,-0.7076032,0.01586746,0.6342818
7.099835873,0.3013806,-0.709282,0.01766635,0.6343535
7.132612228,0.2910003,-0.71326,0.02358057,0.6345477
7.200685501,0.2797656,-0.7195624,0.0260057,0.6323865
7.233462334,0.2776942,-0.7217359,0.02194642,0.6309749
7.266238689,0.26947,-0.7254212,0.02232873,0.6303008
7.299014092,0.2637919,-0.7280837,0.02285502,0.6296136
7.334311962,0.2627694,-0.7291047,0.01867681,0.6289973
7.367088318,0.258049,-0.7311424,0.0165804,0.6286449
7.399864197,0.254584,-0.7321256,0.01314244,0.6289944
7.432640553,0.2532123,-0.7325586,0.008016933,0.6291302
7.467938423,0.2481955,-0.7346171,0.003919627,0.6287678
7.500714302,0.2453392,-0.7362314,-0.0006436533,0.6280122
7.533490658,0.2464349,-0.7369682,-0.009301011,0.6266491
7.566267014,0.2469483,-0.738315,-0.01716799,0.6246922
7.599042893,0.2406192,-0.7419283,-0.01744656,0.6228708
7.634340286,0.2344415,-0.746066,-0.0128595,0.6203912
7.667117119,0.2365615,-0.7474591,-0.0124309,0.6179134
7.699892521,0.240859,-0.7480398,-0.01460999,0.6154979
7.732668877,0.2419759,-0.7512108,-0.01136486,0.6112516
7.767966747,0.2506101,-0.7526941,-0.0106265,0.605938
7.800742626,0.2606796,-0.7532511,-0.01146348,0.6009619
7.833518982,0.2656735,-0.7560362,-0.006986626,0.5953198
7.866295338,0.2721933,-0.7588469,-0.0003362916,0.5888034
7.899071693,0.2820016,-0.7608407,0.003833014,0.5815579
7.934369087,0.2924888,-0.7630435,0.008705122,0.5733819
7.967145443,0.3057453,-0.7648022,0.01654264,0.5638717
7.999921799,0.3186674,-0.7665309,0.02711348,0.5538719
8.032697678,0.3313694,-0.7687139,0.04024459,0.5424771
8.067995071,0.3496246,-0.770816,0.05527049,0.526477
8.100771904,0.3678279,-0.7716882,0.06820706,0.5110534
8.133547306,0.3773998,-0.7758079,0.08737963,0.4946553
8.166323662,0.3896687,-0.7793113,0.1063217,0.4755581
8.199100494,0.406704,-0.7795988,0.1179082,0.4577585
8.234397411,0.4178896,-0.7833765,0.1305292,0.437355
8.267173767,0.4352917,-0.7863968,0.1319179,0.4139161
8.299950123,0.4640912,-0.7842414,0.1214159,0.389192
8.332726479,0.4848894,-0.7829028,0.1135885,0.3683351
8.368023872,0.4997167,-0.784108,0.1104578,0.3462436
8.400800228,0.5097618,-0.7861392,0.1100115,0.3265783
8.433576584,0.5170431,-0.7884445,0.1113933,0.3086114
8.466352463,0.520465,-0.7924407,0.1120254,0.2919451
8.499128819,0.5154291,-0.8013731,0.112924,0.2756989
8.534426689,0.5136379,-0.8087642,0.1095395,0.2582742
8.567202091,0.5146223,-0.8134356,0.1037447,0.2436206
8.599978447,0.5149711,-0.8177526,0.09750634,0.2306638
8.632755280,0.5191812,-0.819621,0.08926069,0.2175605
8.668052197,0.5263585,-0.8198695,0.07855878,0.2030199
8.700828552,0.5346958,-0.8187527,0.06772567,0.1891701
8.733604908,0.5414265,-0.8181933,0.05790279,0.1751914
8.766380787,0.5457256,-0.8187307,0.04916053,0.1614761
8.799157143,0.5521824,-0.8175292,0.03916904,0.1477637
8.834455013,0.5602528,-0.8149395,0.02698386,0.1337527
8.867231369,0.5639988,-0.8144678,0.01633896,0.1220995
8.900007248,0.5656154,-0.8149365,0.006633731,0.1119876
8.932783604,0.5698171,-0.8131744,-0.002825741,0.1033217
8.965559959,0.574053,-0.8110101,-0.01104294,0.09608031
9.000856876,0.5739656,-0.8116279,-0.01814388,0.09012376
9.033633232,0.5749674,-0.8112768,-0.02387883,0.0854395
9.066410065,0.5776188,-0.8095428,-0.02790274,0.08274064
9.099185467,0.5785086,-0.808735,-0.02976528,0.08377019
9.134483337,0.576839,-0.8092383,-0.02951966,0.09025823
9.167259693,0.574437,-0.8098514,-0.02826318,0.09995887
9.200035572,0.5751231,-0.8081662,-0.02869062,0.1091121
9.232811928,0.584689,-0.8004604,-0.03608862,0.1128151
9.265588284,0.5999952,-0.7885558,-0.05098738,0.110515
9.300885677,0.6087872,-0.7808155,-0.06864626,0.1077991
9.333662033,0.6028969,-0.7835917,-0.08250309,0.1109969
9.366438389,0.5952023,-0.7874174,-0.09386779,0.1162951
9.399214745,0.5993193,-0.7826318,-0.1049623,0.1179595
9.434511662,0.6104227,-0.7727187,-0.1161335,0.1158909
9.467288017,0.6178289,-0.7657874,-0.1241707,0.1143079
9.500064850,0.6254043,-0.7586342,-0.1311311,0.1130303
9.532840252,0.634254,-0.7500755,-0.1383484,0.1122307
9.565617085,0.641416,-0.7424466,-0.1463812,0.1120646
9.600914478,0.6458693,-0.7364986,-0.1569811,0.1113878
9.633690357,0.6449615,-0.7347,-0.1685299,0.111651
9.666466713,0.6368073,-0.7390754,-0.1785779,0.1139367
9.699243069,0.6226242,-0.7486331,-0.1860538,0.1178961
9.734540463,0.6082931,-0.7581296,-0.1926878,0.1213176
9.767316818,0.6034309,-0.7599459,-0.2011165,0.1205541
9.800093174,0.601509,-0.7591213,-0.2115558,0.1174455
9.832869530,0.5975084,-0.7593316,-0.222655,0.1159806
9.865645409,0.5914039,-0.760934,-0.2327168,0.11701
9.900942802,0.5856565,-0.7622552,-0.2412245,0.1200496
9.933719635,0.5783942,-0.7654827,-0.2459582,0.1250146
9.966495037,0.5701442,-0.769866,-0.2478982,0.1319697
9.999271870,0.561165,-0.7753067,-0.2468275,0.140347
10.034569263,0.5472656,-0.7851831,-0.2409496,0.1501963
10.067345142,0.5354097,-0.7941189,-0.2336672,0.1572863
10.100121498,0.5291646,-0.7993569,-0.2279751,0.1602136
10.132897854,0.5201236,-0.806803,-0.2220014,0.1608833
10.165673733,0.5106815,-0.8150422,-0.2153922,0.1585706
10.200971603,0.5089754,-0.8188634,-0.2102824,0.1510489
10.233747959,0.5111296,-0.8208349,-0.2046916,0.1403763
10.266523838,0.5125862,-0.8238469,-0.1969604,0.1279298
10.299300194,0.5154265,-0.8263584,-0.1872925,0.1140893
10.334597588,0.5186777,-0.8289708,-0.1749674,0.09896942
10.367373467,0.5183532,-0.8334121,-0.1609194,0.08641157
10.400149822,0.5229183,-0.8346584,-0.1463754,0.07144063
10.432926655,0.5365857,-0.8297145,-0.132799,0.05139827
10.465703011,0.5514745,-0.8230929,-0.118556,0.03107925
10.500999928,0.5629957,-0.8180211,-0.1019159,0.01086056
10.533776283,0.5746323,-0.8115739,-0.08789868,-0.006863583
10.566552639,0.5853498,-0.8049132,-0.07552098,-0.02011925
10.599328518,0.5906463,-0.8016309,-0.06453003,-0.03143908
10.634626389,0.5915825,-0.8009888,-0.05496448,-0.04531865
10.667402744,0.5962675,-0.7970895,-0.04737961,-0.05912963
10.700178623,0.6056188,-0.7894732,-0.03915508,-0.07108074
10.732954979,0.6186127,-0.7786434,-0.02882196,-0.08264184
10.765731335,0.6319214,-0.7669157,-0.01651315,-0.09418499
10.801028252,0.64292,-0.7565222,-0.001437285,-0.1046598
10.833804607,0.6507251,-0.7486905,0.01372688,-0.1116192
10.899356842,0.6618316,-0.7365103,0.04516828,-0.1188231
10.934654713,0.6557606,-0.7408338,0.05562846,-0.1211461
10.967431068,0.65368,-0.7418224,0.06117819,-0.1236401
11.000206947,0.6550456,-0.739839,0.06485868,-0.1263913
11.032983303,0.6551708,-0.7392145,0.06745325,-0.1280271
11.065759659,0.652653,-0.7411668,0.06908144,-0.1287291
11.101056576,0.649673,-0.7437783,0.07025882,-0.128102
11.133833408,0.6475751,-0.7456298,0.07092301,-0.1275949
11.166609764,0.6484984,-0.7448086,0.07122484,-0.1275325
11.199386120,0.6513812,-0.7420908,0.07168584,-0.1284234
11.234683037,0.656119,-0.7375368,0.07278196,-0.1299155
11.267459393,0.6603406,-0.7334557,0.07448655,-0.1306625
11.300235748,0.6621463,-0.7316173,0.07619423,-0.130846
11.333011627,0.6632065,-0.7304901,0.07816903,-0.1306089
11.365787983,0.664838,-0.7289237,0.07986348,-0.1300391
11.401085854,0.665553,-0.7282622,0.08151649,-0.1290593
11.433861733,0.6644664,-0.7293109,0.0834015,-0.1275215
11.466638088,0.6648382,-0.7290865,0.08557647,-0.1254085
11.499414444,0.6651688,-0.7289612,0.08803881,-0.1226495
11.534711361,0.664632,-0.7296793,0.09078722,-0.1192385
11.567488194,0.6657149,-0.7289566,0.09276224,-0.1160543
11.600264549,0.6662272,-0.7288014,0.09401798,-0.1130412
11.633039951,0.6650795,-0.7301441,0.09467304,-0.1105595
11.665816784,0.6665252,-0.7289514,0.09599567,-0.1085654
11.701114178,0.6682362,-0.7273356,0.09835487,-0.106758
11.733890057,0.6681789,-0.7272596,0.1012412,-0.1049204
11.766666413,0.6687104,-0.7265247,0.1046443,-0.1032743
11.799442768,0.6690391,-0.7259566,0.1077041,-0.1019858
11.834740162,0.6690494,-0.7257674,0.1100251,-0.1007795
11.867516518,0.6691092,-0.7256619,0.1114176,-0.09960678
11.900292873,0.6680941,-0.7266632,0.112098,-0.0983492
11.933069229,0.6674098,-0.7274185,0.112294,-0.09718081
11.965845108,0.6676852,-0.7272956,0.1124348,-0.09604084
12.001142979,0.6673098,-0.7277542,0.1126404,-0.0949279
12.033919334,0.6668122,-0.7282569,0.1129049,-0.09425147
12.066694736,0.6663301,-0.7286838,0.1133373,-0.09384348
12.099471569,0.6656603,-0.7292495,0.1138407,-0.09359292
12.132247925,0.6650543,-0.7297589,0.1143244,-0.09333976
12.167544842,0.6648096,-0.729943,0.1148476,-0.09299981
12.200321198,0.6648011,-0.7298931,0.1155597,-0.09257017
12.233097553,0.6650874,-0.7295703,0.1163508,-0.09206498
12.265873432,0.6657223,-0.728914,0.1175153,-0.09119271
12.301171303,0.6668398,-0.7277752,0.1190349,-0.09014714
