Time (s),Percentage (%),Time To Empty (minutes),Voltage (V),Current (mA),Is Charger Connected (Boolean)
-0.241579533,52.28125,87.1875,3.78125,266.875,0
0.813125610,52.26953,87.1875,3.7825,250.625,0
1.692234993,52.25781,87.1875,3.78125,255,0
2.747110844,52.24609,87.1875,3.781875,253.75,0
3.801831722,52.23047,87.09375,3.77625,265.3125,0
4.681136131,52.23047,86.90625,3.78125,268.4375,0
5.735723495,52.21875,86.8125,3.781875,261.5625,0
6.790446281,52.20703,86.71875,3.780625,299.0625,0
7.669460773,52.19531,86.53125,3.7825,253.75,0
8.724191189,52.18359,86.53125,3.78125,258.125,0
9.778923035,52.18359,86.71875,3.778125,260,0
10.657960892,52.17188,86.34375,3.778125,259.6875,0
11.712741375,52.16016,86.34375,3.778125,267.8125,0
12.767511368,52.14844,86.53125,3.780625,258.75,0
13.822382927,52.13281,86.53125,3.783125,254.375,0
14.701274872,52.13281,86.625,3.780625,255.3125,0
15.756103039,52.12109,86.625,3.78,262.8125,0
16.811043262,52.10938,86.625,3.78125,256.25,0
17.689922333,52.09766,86.625,3.78125,257.1875,0
18.744888306,52.08594,86.8125,3.78375,248.125,0
19.799516678,52.07422,86.53125,3.78,258.75,0
20.678738594,52.07422,86.53125,3.78125,251.25,0
21.733293533,52.0625,86.625,3.780625,264.0625,0
22.787962437,52.05078,86.625,3.78125,265.625,0
23.667081833,52.03516,86.71875,3.77875,258.125,0
24.721856117,52.02344,86.71875,3.77875,263.4375,0
25.776581764,52.02344,86.71875,3.78125,268.125,0
26.655671120,52.01172,86.53125,3.77625,265,0
27.710619926,52,86.53125,3.779375,283.75,0
28.765372276,51.98828,86.71875,3.779375,259.6875,0
29.819910049,51.97656,86.625,3.77875,270.9375,0
30.699042320,51.97656,86.625,3.779375,256.875,0
31.753904343,51.96484,86.71875,3.779375,255,0
32.808489323,51.95313,86.53125,3.77875,264.6875,0
33.687816143,51.9375,86.34375,3.776875,252.5,0
34.742311954,51.92578,85.875,3.78,273.125,0
35.797199249,51.91406,85.875,3.77875,268.4375,0
36.676165581,51.91406,85.96875,3.778125,265,0
37.730995655,51.90234,85.875,3.78,270,0
38.785879135,51.89063,85.96875,3.775,275.9375,0
39.664835453,51.87891,85.96875,3.7775,260.9375,0
40.719871998,51.86719,85.96875,3.77875,259.0625,0
41.774212360,51.85547,85.96875,3.7775,269.375,0
42.829129696,51.85547,85.96875,3.779375,253.75,0
44.762884617,51.82813,85.96875,3.78,259.0625,0
45.817796707,51.81641,86.15625,3.776875,254.0625,0
46.696644306,51.80469,86.15625,3.77875,265.3125,0
47.751775742,51.80469,85.96875,3.77875,251.5625,0
48.806278229,51.79297,86.0625,3.77875,256.875,0
49.685553551,51.78125,86.0625,3.779375,256.25,0
50.740087986,51.76953,86.0625,3.77625,270.625,0
51.794747353,51.75781,86.15625,3.7775,277.5,0
52.673837185,51.75781,86.15625,3.77625,258.75,0
53.728739738,51.74219,86.15625,3.78,261.875,0
54.783500671,51.73047,86.15625,3.775,265,0
55.662719726,51.71875,86.15625,3.7775,258.125,0
56.717278957,51.70703,86.25,3.77625,271.5625,0
57.772090435,51.69531,86.25,3.775,265.9375,0
58.826731205,51.69531,86.15625,3.7775,268.4375,0
59.705868721,51.68359,86.15625,3.77875,263.75,0
60.760716915,51.67188,86.0625,3.780625,254.0625,0
61.815288067,51.66016,86.15625,3.776875,273.125,0
62.694669247,51.66016,85.96875,3.7775,254.375,0
63.749065876,51.64453,86.0625,3.778125,268.75,0
64.803983688,51.63281,86.0625,3.77625,269.6875,0
65.682879448,51.62109,86.0625,3.776875,254.0625,0
67.792667866,51.59766,85.96875,3.77625,275.3125,0
68.671514988,51.59766,85.96875,3.775625,275.9375,0
69.726226807,51.58594,85.875,3.778125,262.8125,0
70.781183243,51.57422,85.96875,3.778125,274.375,0
71.660039902,51.5625,85.875,3.77625,256.25,0
72.714916706,51.54688,85.875,3.776875,262.1875,0
73.769572258,51.54688,85.96875,3.77625,252.8125,0
74.824519157,51.53516,85.875,3.775,256.25,0
75.703362465,51.52344,85.875,3.7775,270.3125,0
76.758342743,51.51172,85.6875,3.77875,260.9375,0
77.813090801,51.5,85.5,3.775,252.1875,0
78.692150593,51.5,85.59375,3.77625,254.0625,0
79.746855736,51.48828,85.59375,3.7775,262.8125,0
80.801532268,51.47656,85.6875,3.77625,263.75,0
81.680673122,51.46484,85.59375,3.77625,256.875,0
82.735308647,51.44922,85.59375,3.775,275,0
83.790157318,51.4375,85.59375,3.774375,272.5,0
84.669123650,51.4375,85.59375,3.775625,248.75,0
85.723896503,51.42578,85.6875,3.774375,267.8125,0
86.778831959,51.41406,85.6875,3.774375,265.3125,0
87.657699108,51.40234,85.6875,3.775625,267.8125,0
88.712578297,51.39063,85.5,3.7775,264.6875,0
89.767472267,51.39063,85.5,3.77625,268.4375,0
90.822079658,51.37891,85.03125,3.774375,273.125,0
91.701310158,51.36719,85.03125,3.778125,254.0625,0
92.755878925,51.35156,85.3125,3.77625,255,0
93.810744286,51.33984,85.03125,3.775,274.6875,0
94.689625740,51.33984,85.03125,3.776875,257.1875,0
95.744472504,51.32813,84.75,3.775,284.0625,0
96.799365997,51.31641,84.84375,3.77625,254.0625,0
97.678269863,51.30469,84.84375,3.77625,250.625,0
98.733395100,51.29297,84.84375,3.773125,276.875,0
99.787914753,51.28125,85.03125,3.775,260.9375,0
100.666789532,51.28125,85.03125,3.775,255.9375,0
101.721726894,51.26953,85.21875,3.775625,254.0625,0
102.776389599,51.25391,84.84375,3.77625,267.1875,0
103.655533791,51.24219,84.84375,3.774375,273.125,0
104.710165501,51.23047,84.84375,3.77625,255.3125,0
105.765017033,51.21875,85.125,3.77625,255.9375,0
106.819905281,51.21875,85.21875,3.771875,260.9375,0
107.698785305,51.20703,85.21875,3.776875,250.3125,0
108.753675461,51.19531,85.21875,3.7725,263.75,0
109.808338165,51.18359,85.3125,3.773125,262.1875,0
110.687439918,51.18359,85.40625,3.77625,256.25,0
111.742170811,51.17188,85.40625,3.773125,276.875,0
112.796892643,51.15625,85.21875,3.77625,261.875,0
113.675905704,51.14453,85.03125,3.775,255,0
114.730724335,51.13281,85.03125,3.77375,265.3125,0
115.785560608,51.12109,85.21875,3.77375,262.8125,0
116.664731979,51.12109,85.03125,3.775,252.1875,0
117.719331741,51.10938,85.125,3.77375,255,0
118.774277210,51.09766,85.125,3.774375,259.6875,0
119.828977108,51.08594,85.21875,3.7725,255,0
120.707940102,51.07422,84.9375,3.774375,273.4375,0
121.762740135,51.05859,84.84375,3.773125,268.75,0
122.817837715,51.05859,84.5625,3.773125,270.625,0
123.696533203,51.04688,84.75,3.774375,247.5,0
124.751206398,51.03516,84.5625,3.775,273.4375,0
125.806129456,51.02344,84.75,3.773125,263.75,0
