Time (s),W,X,Y,Z
0.000000000,0.3728168,-0.3901052,0.02851018,-0.8394285
0.032168865,0.3980968,-0.3760537,0.008455838,-0.8346608
0.066815853,0.4233183,-0.3546218,-0.001452408,-0.8316673
0.098989010,0.4455566,-0.3372155,-0.002264402,-0.8272772
0.131161690,0.4637114,-0.3251195,-0.006533375,-0.8221034
0.165808678,0.4765233,-0.3148996,-0.01490144,-0.8186387
0.197981358,0.4845231,-0.3066214,-0.02160791,-0.8169342
0.232625485,0.4985518,-0.2923207,-0.01336893,-0.8139064
0.264797688,0.509896,-0.2816735,-0.01040779,-0.8106698
0.299445152,0.5176677,-0.2753513,-0.01395285,-0.8078582
0.331618309,0.5226363,-0.2710977,-0.0177288,-0.8060215
0.366265297,0.5310398,-0.2618065,-0.01401602,-0.8036699
0.398437977,0.5365867,-0.2561208,-0.01527229,-0.8017926
0.433082104,0.5395544,-0.2517214,-0.01895403,-0.8011155
0.465254307,0.5413754,-0.2475803,-0.02047944,-0.8011398
0.499901772,0.5415183,-0.2458628,-0.02329091,-0.8014953
0.532074928,0.5428889,-0.2401567,-0.01770304,-0.8024405
0.566721916,0.5415454,-0.2418974,-0.01493631,-0.8028817
0.598894596,0.5420694,-0.2413819,-0.007511315,-0.8027869
0.631062985,0.5442111,-0.2419631,-0.002926596,-0.8011912
0.665710926,0.5441679,-0.2474627,-0.009788401,-0.7994845
0.697883606,0.5356226,-0.2566931,-0.02621497,-0.8019711
0.732531548,0.5163348,-0.2684632,-0.0428157,-0.8100126
0.764704228,0.4885817,-0.284339,-0.0553783,-0.8209751
0.799421787,0.4363931,-0.3184282,-0.08391909,-0.8353142
0.831590653,0.3747094,-0.3488334,-0.1005986,-0.8511261
0.866238117,0.2980581,-0.3738914,-0.1106062,-0.8693448
0.898410797,0.2167853,-0.3953958,-0.1194729,-0.882621
0.933058262,0.1342985,-0.4017871,-0.1134352,-0.8968228
0.965231419,0.05655038,-0.3937877,-0.103621,-0.9097382
0.999878407,-0.03364689,-0.3836395,-0.1041949,-0.9151281
1.032046795,-0.109879,-0.3553011,-0.08721334,-0.922339
1.066694736,-0.1891037,-0.3183586,-0.06670225,-0.9246978
1.098867416,-0.2572678,-0.2817402,-0.05493695,-0.9208937
1.133514881,-0.3079582,-0.2487758,-0.01001443,-0.9164059
1.165688038,-0.3427527,-0.2305918,0.04430907,-0.9077512
1.197860241,-0.3767591,-0.208514,0.07542183,-0.8975042
1.232503414,-0.4034753,-0.191075,0.1086468,-0.8862966
1.264676094,-0.4183565,-0.1788116,0.1473989,-0.8763021
1.299324036,-0.4281609,-0.1641909,0.1836056,-0.8675461
1.331496716,-0.4361612,-0.1461298,0.1990736,-0.8633695
1.366144657,-0.4444493,-0.1205038,0.1995308,-0.8629941
1.398316860,-0.4546298,-0.09205253,0.1835458,-0.8647407
1.432960034,-0.466613,-0.05939651,0.1617205,-0.865574
1.465132713,-0.4776213,-0.02818867,0.1437303,-0.8643219
1.499780655,-0.4856791,0.002477565,0.136549,-0.8614475
1.531953335,-0.488292,0.0225353,0.113056,-0.8630812
1.566601277,-0.484908,0.01905899,0.1076639,-0.8657581
1.598773480,-0.4789108,0.0145954,0.1078177,-0.8691573
1.633416653,-0.4747359,0.0119043,0.1062495,-0.8716782
1.665589333,-0.4744884,0.012942,0.1025865,-0.8722367
1.697762489,-0.4752341,0.01554571,0.1027215,-0.8717723
1.732409954,-0.4730922,0.01601099,0.105325,-0.8726178
1.764582157,-0.4710694,0.01907452,0.09889207,-0.8744014
1.799230099,-0.4711595,0.02231771,0.08941671,-0.8752959
1.831398964,-0.4722456,0.02287209,0.08302492,-0.8753259
1.866045952,-0.4722829,0.02234378,0.08191252,-0.8754242
1.898219109,-0.4712284,0.02159239,0.08137863,-0.8760609
1.932866573,-0.470301,0.0202765,0.0782987,-0.876871
1.965038776,-0.4706701,0.01859708,0.07574911,-0.8769342
1.999686718,-0.4701161,0.01674986,0.07686768,-0.8771713
2.031855583,-0.4689681,0.01403401,0.08126242,-0.8774372
2.066502571,-0.4676989,0.01135019,0.08444621,-0.8778528
2.098675728,-0.4665692,0.009396129,0.08687679,-0.8782397
2.133323193,-0.4655025,0.008987737,0.08778218,-0.8787199
2.165495396,-0.4643916,0.009437306,0.08792972,-0.8792881
2.200143337,-0.4634238,0.009814431,0.08743845,-0.8798433
2.232311726,-0.4627175,0.009946868,0.08685119,-0.8802716
2.264484406,-0.4619088,0.0102306,0.08654703,-0.880723
2.299132347,-0.461224,0.01096118,0.08556626,-0.8811687
2.331305027,-0.4607199,0.01174656,0.08430769,-0.8815435
2.365952015,-0.4602926,0.01160724,0.08387395,-0.88181
2.398125172,-0.459864,0.01120275,0.08367027,-0.8820583
2.432768345,-0.4593689,0.01103091,0.08392487,-0.8822942
2.464941025,-0.4589038,0.01089658,0.08389833,-0.8825402
2.499588966,-0.4582561,0.01043527,0.08421229,-0.8828524
2.531761646,-0.4576417,0.009956405,0.08483911,-0.8831166
2.566408634,-0.4569903,0.009341175,0.08560475,-0.8833867
2.598581791,-0.4563384,0.0085807,0.08657757,-0.8836365
2.633224964,-0.4559115,0.008273649,0.08692817,-0.8838254
2.665397644,-0.4557345,0.008251209,0.08662751,-0.8839465
2.700045586,-0.4557108,0.008180342,0.08631466,-0.88399
2.732218266,-0.4555034,0.008321603,0.08590923,-0.8841349
2.764390469,-0.4552216,0.008464733,0.08562305,-0.8843065
2.799041748,-0.4547758,0.008166564,0.08590948,-0.884511
2.831211090,-0.4543037,0.007984605,0.08606764,-0.8847398
2.865858078,-0.4538611,0.007946192,0.08609737,-0.8849644
2.898030758,-0.4534544,0.007804871,0.08627277,-0.8851571
2.932678699,-0.4529228,0.007699108,0.08623412,-0.8854338
2.964851379,-0.4525609,0.007625671,0.08616096,-0.8856266
2.999498367,-0.452179,0.007488484,0.08628418,-0.8858109
3.031667709,-0.4518591,0.00735459,0.08633707,-0.88597
3.066314697,-0.4514717,0.007294389,0.08619691,-0.8861816
3.098487377,-0.4511218,0.006991404,0.0863173,-0.8863506
3.133135319,-0.4507916,0.00680055,0.08654623,-0.8864976
3.165307999,-0.4503583,0.006795275,0.08675318,-0.8866976
3.199955940,-0.4499514,0.006613545,0.08695006,-0.8868864
3.232124329,-0.4496859,0.006494163,0.08698876,-0.887018
3.266771317,-0.4493291,0.006609999,0.0868627,-0.8872104
3.298943996,-0.4490147,0.006620619,0.0867775,-0.8873777
3.331117153,-0.4488063,0.006664132,0.08667149,-0.8874933
3.365764618,-0.4486172,0.006776972,0.0865861,-0.8875963
3.397936821,-0.4485246,0.007042251,0.08620697,-0.8876779
3.432580948,-0.4483049,0.007106305,0.08597974,-0.8878104
3.464753628,-0.4479033,0.00708928,0.08609779,-0.8880019
3.499401093,-0.4474539,0.007268373,0.08598637,-0.8882378
3.531573773,-0.4470159,0.007644553,0.08565994,-0.8884865
3.566221237,-0.4466628,0.007893901,0.08454821,-0.8887684
3.598393440,-0.4469677,-0.001714474,0.09972619,-0.8870733
3.633037567,-0.434494,-0.03252191,0.1576766,-0.8842641
3.665210247,-0.4091902,-0.06115968,0.1983082,-0.8866366
3.699857712,-0.3717907,-0.0931346,0.2221125,-0.8946458
3.732030392,-0.318378,-0.140403,0.2476556,-0.9023396
3.766677857,-0.2584702,-0.1869806,0.2430175,-0.9142218
3.798874855,-0.1760941,-0.241849,0.2640693,-0.9150928
3.831043244,-0.09064285,-0.2862553,0.261834,-0.9153754
3.865690708,-0.009005829,-0.3306573,0.233948,-0.9124036
3.897863865,0.06409033,-0.365806,0.2089908,-0.9027894
3.932510853,0.1319981,-0.3934442,0.1735039,-0.8912363
3.964683533,0.1835543,-0.4110039,0.1309728,-0.881395
3.999331474,0.2278431,-0.4182913,0.08592764,-0.8731346
4.031499863,0.261869,-0.4197912,0.0504957,-0.8656083
4.066147804,0.2871117,-0.4208598,0.01024021,-0.8584676
4.098320484,0.2995819,-0.4256345,-0.02708205,-0.8514575
4.132967472,0.3073432,-0.4309822,-0.0596715,-0.8443112
4.165140152,0.3187905,-0.4300955,-0.0715543,-0.8395821
4.199788094,0.3299571,-0.4273458,-0.07613897,-0.8362622
4.231956482,0.3343048,-0.4260629,-0.08205215,-0.8346292
4.266604424,0.339467,-0.4222723,-0.08498598,-0.8341783
4.298777103,0.3478337,-0.414007,-0.07974721,-0.8353909
4.333424091,0.3553554,-0.4069253,-0.07462678,-0.8361776
4.365597248,0.3593251,-0.4033237,-0.07584606,-0.8361163
4.397769928,0.3656298,-0.3984658,-0.07459553,-0.8358248
4.432413101,0.3731283,-0.394208,-0.07153785,-0.8347967
4.464586258,0.3760064,-0.3940069,-0.07358169,-0.8334213
4.499233723,0.3757497,-0.395348,-0.07731429,-0.8325636
4.531406403,0.3727826,-0.3962433,-0.07985042,-0.8332323
4.566053867,0.3681341,-0.3961187,-0.07982308,-0.8353581
4.598226547,0.3618678,-0.3983339,-0.08102772,-0.8369253
4.632869721,0.3561478,-0.4022796,-0.08060477,-0.8375323
4.665042877,0.3549153,-0.4054411,-0.07527809,-0.8370267
4.699690342,0.3560834,-0.4094674,-0.06867472,-0.8351363
4.731862545,0.3604531,-0.4135639,-0.0622795,-0.8317376
4.766510487,0.3708758,-0.4042686,-0.05495249,-0.8322415
4.798683167,0.3815424,-0.3684778,-0.05475946,-0.8439659
4.833327294,0.368644,-0.3305957,-0.07382762,-0.8637043
4.865499497,0.3844796,-0.3172368,-0.07919909,-0.8613312
4.900146961,0.3581559,-0.3255844,-0.1338149,-0.8628096
4.932319164,0.3648885,-0.326164,-0.1170234,-0.8622103
4.964492798,0.3750739,-0.305973,-0.07569572,-0.8698265
4.999139786,0.3664081,-0.3159177,-0.08832772,-0.8687733
5.031308174,0.3614988,-0.3190843,-0.09197374,-0.8692942
5.065956116,0.3594477,-0.3185273,-0.08640994,-0.8709183
5.098128796,0.3545083,-0.3189074,-0.08525516,-0.8729153
5.132776737,0.3452898,-0.3183233,-0.08964936,-0.8763765
5.164949417,0.3335816,-0.3190027,-0.09346519,-0.880257
5.199596405,0.3176576,-0.320237,-0.09469463,-0.8855522
5.231765747,0.2991884,-0.3187177,-0.09294177,-0.8926896
5.266412735,0.2767972,-0.3157256,-0.08772436,-0.9014615
5.298585415,0.2513047,-0.3145533,-0.08459585,-0.9096006
5.333233357,0.2222174,-0.3126995,-0.07754649,-0.9183967
5.365405560,0.1973624,-0.3137335,-0.06333601,-0.9247894
5.400053024,0.1591612,-0.3133819,-0.06174035,-0.9323493
5.432222366,0.1234286,-0.3142741,-0.05484235,-0.9378791
5.464394570,0.09159894,-0.3129126,-0.03770095,-0.9428157
5.499042034,0.05585371,-0.3094991,-0.02192826,-0.9472262
5.531215191,0.02852189,-0.3052598,0.0065647,-0.9500461
5.565862179,-0.003351022,-0.2994409,0.03689497,-0.9516252
5.598034859,-0.04471968,-0.2930342,0.04396473,-0.9522741
5.632678986,-0.09111653,-0.2812368,0.04471007,-0.9524875
5.664851189,-0.13311,-0.2648918,0.04972794,-0.9519815
5.699499130,-0.1753111,-0.2441417,0.06174533,-0.9499875
5.731671810,-0.2068378,-0.2284839,0.08280355,-0.9459305
5.766318798,-0.2354313,-0.213223,0.1152144,-0.9393941
5.798491478,-0.2681408,-0.1917804,0.1264474,-0.9337877
5.833135605,-0.3012657,-0.1695628,0.1401774,-0.9259943
5.865307808,-0.3276273,-0.1487438,0.1582044,-0.9176788
5.899955749,-0.3528316,-0.1251575,0.1784786,-0.908085
5.932128429,-0.3701659,-0.1034478,0.2029912,-0.8987201
5.966775417,-0.3866669,-0.07240538,0.2188298,-0.8910596
5.998948574,-0.4020751,-0.03837242,0.2228452,-0.8853421
6.031117439,-0.4140586,-0.003984484,0.2280949,-0.8792837
6.065764427,-0.4234791,0.03228493,0.2327832,-0.8729621
6.097937584,-0.4240966,0.0517045,0.2327571,-0.8717342
6.132585049,-0.414122,0.05020734,0.2088251,-0.8826109
6.164757729,-0.3975433,0.05554033,0.2145132,-0.8885304
6.199405193,-0.3854883,0.07416122,0.1868192,-0.8986796
6.231574059,-0.3833068,0.09194469,0.1631811,-0.9025639
6.266222000,-0.382975,0.1019795,0.162811,-0.9016932
6.298394203,-0.3815011,0.1112346,0.1668412,-0.9004862
6.333041668,-0.3791207,0.122189,0.1704909,-0.8993875
6.365214825,-0.375667,0.1278585,0.1725532,-0.8996552
6.399861813,-0.3704844,0.1310933,0.1754751,-0.9007731
6.432030678,-0.3656185,0.1333645,0.1779902,-0.9019337
6.466678619,-0.3606504,0.1346384,0.1796788,-0.9034085
6.498850823,-0.3552801,0.1375781,0.1821855,-0.9045908
6.533498287,-0.3504698,0.1425375,0.1832139,-0.9054913
6.565671444,-0.3472749,0.1454505,0.1840228,-0.9060947
6.597844124,-0.3435126,0.1468863,0.1902674,-0.9060075
6.632487297,-0.3404082,0.147086,0.1982372,-0.9054379
6.664660454,-0.3376786,0.1482349,0.2037944,-0.9050387
6.699307442,-0.3353867,0.1530071,0.208856,-0.9039421
6.731480122,-0.3375142,0.1585949,0.2100817,-0.9019009
6.766128063,-0.3466483,0.1626766,0.2161421,-0.8962597
6.798350334,-0.3601441,0.1654508,0.2307876,-0.8867282
6.832993508,-0.377816,0.171178,0.243485,-0.874812
6.865166187,-0.3983438,0.1794375,0.2576618,-0.8598619
6.899814129,-0.4219621,0.1916233,0.2785161,-0.8392168
6.931986809,-0.445202,0.2054594,0.2996272,-0.8163533
6.966634750,-0.4696714,0.2204697,0.3329454,-0.785224
6.998806953,-0.4888884,0.2389005,0.3640067,-0.7536852
7.033450127,-0.5065836,0.2624238,0.3999544,-0.7149622
7.065622807,-0.5174707,0.2853578,0.438348,-0.6747397
7.097795963,-0.5213514,0.3116512,0.4724417,-0.6359974
7.132443428,-0.5179324,0.338576,0.5089062,-0.5956126
7.164615631,-0.5120229,0.362284,0.5343099,-0.5636696
7.199263573,-0.5035278,0.3886829,0.5527074,-0.5352826
7.231432438,-0.5047845,0.4040854,0.5625815,-0.5118958
7.266080380,-0.5232321,0.4081019,0.5507773,-0.5029442
7.298572064,-0.5504732,0.407039,0.5315416,-0.4953682
7.333219051,-0.5647169,0.4154217,0.5151508,-0.48966
7.365391731,-0.5801128,0.4130155,0.5068464,-0.4823087
7.400039673,-0.5929146,0.4103543,0.499343,-0.4768079
7.432208061,-0.6020092,0.4101454,0.492685,-0.4724984
7.466856003,-0.6088178,0.4113733,0.4864132,-0.4691939
7.499028683,-0.6131629,0.4117912,0.4825276,-0.4671769
7.533675671,-0.6173604,0.4118014,0.4794336,-0.4648192
7.565848827,-0.6203123,0.4128643,0.4763679,-0.4630949
7.598021507,-0.6234109,0.4131079,0.4742572,-0.4608782
7.632664681,-0.6262774,0.4132947,0.4723667,-0.4587608
7.664837837,-0.6295418,0.4121259,0.4717528,-0.4559677
7.699485302,-0.6329145,0.4120588,0.4709351,-0.4521887
7.731657982,-0.6355376,0.4131269,0.4692683,-0.4492584
7.766305447,-0.6396211,0.4141047,0.4655584,-0.4464137
7.798478127,-0.6405236,0.4168136,0.4631482,-0.4451037
7.833121300,-0.6413127,0.4185135,0.4631962,-0.4423138
7.865294457,-0.6418382,0.4197059,0.4635826,-0.4400107
7.899941921,-0.643089,0.4197212,0.4631273,-0.4386473
7.932114601,-0.6446588,0.4181143,0.4618331,-0.4392418
7.966762066,-0.6465625,0.4153334,0.4586009,-0.4424566
7.998934746,-0.6497725,0.4081342,0.4569439,-0.4461526
8.033578873,-0.6519583,0.4012039,0.4542025,-0.4520108
8.065751076,-0.6558619,0.3900595,0.4530914,-0.4572029
8.100399017,-0.657877,0.3816752,0.4487818,-0.4655583
8.132571697,-0.6612095,0.3693236,0.4472876,-0.4721899
8.164744377,-0.6634553,0.3566323,0.4470968,-0.4789285
8.199391842,-0.6628206,0.3472404,0.444709,-0.4888297
8.231560707,-0.6648974,0.3331487,0.4458578,-0.4947341
8.266207695,-0.6654913,0.3210406,0.4460921,-0.5016809
8.298380852,-0.6653454,0.3096581,0.4479006,-0.5073856
8.333028317,-0.6648244,0.296178,0.4525555,-0.5119652
8.365200996,-0.6572093,0.2949315,0.4517463,-0.5231103
8.399848461,-0.6555636,0.2775169,0.4597506,-0.52771
8.432017326,-0.6484332,0.2733213,0.4604332,-0.5380138
8.466665268,-0.6423783,0.2653092,0.4628057,-0.5471743
8.498837471,-0.6389821,0.2531068,0.4657046,-0.5544238
8.533484936,-0.6362051,0.241769,0.466704,-0.5617879
8.565658093,-0.6356576,0.2306721,0.4664058,-0.5672945
8.600305081,-0.6388651,0.2175101,0.4671381,-0.5682873
8.632473946,-0.641562,0.2092066,0.4669174,-0.5685479
8.667121887,-0.6420824,0.2051013,0.4656181,-0.5705183
8.699294090,-0.6426341,0.1988931,0.468469,-0.5697609
8.731466770,-0.6409739,0.1966948,0.470493,-0.5707256
8.766114712,-0.6365996,0.1941073,0.4748319,-0.5729097
8.798287392,-0.6333055,0.1892793,0.4804442,-0.5734968
8.832931042,-0.6302912,0.1874153,0.4841624,-0.5743021
8.865103722,-0.6260082,0.1888331,0.486174,-0.5768175
8.899750710,-0.6244664,0.1863547,0.4898629,-0.5761734
8.931923866,-0.6246067,0.1863334,0.4907312,-0.5752887
8.966571331,-0.6252605,0.186731,0.4914082,-0.5738699
8.998744011,-0.6274084,0.1863857,0.4909621,-0.5720167
9.033387661,-0.6306499,0.1871031,0.4893706,-0.5695765
9.065560341,-0.6338847,0.1869157,0.4881614,-0.5670793
9.100208282,-0.6379413,0.1859189,0.4858656,-0.5648252
9.132380486,-0.6435207,0.1834093,0.4842333,-0.5607031
9.167027950,-0.6480601,0.1842533,0.4815286,-0.5575185
9.199201107,-0.6537207,0.1813968,0.4799514,-0.5531896
9.231369495,-0.6596553,0.1791713,0.477671,-0.5488266
9.266016960,-0.6655724,0.1777908,0.4753338,-0.5441409
9.298190117,-0.6715101,0.1759394,0.4734467,-0.5390691
9.332837105,-0.6777936,0.1738006,0.4717843,-0.5333258
9.365009785,-0.6837119,0.170512,0.4708735,-0.5276072
9.399657726,-0.6904719,0.163145,0.4711472,-0.5208457
9.431826115,-0.6961069,0.1565793,0.4714263,-0.5150757
9.466474056,-0.7012495,0.1543853,0.4692292,-0.5107504
9.498646736,-0.7057416,0.1534557,0.467029,-0.5068448
9.533293724,-0.7107084,0.1516886,0.4671671,-0.5002666
9.565466881,-0.7147184,0.1536016,0.4659365,-0.4950908
9.600114346,-0.7194546,0.1554068,0.4658854,-0.4876599
9.632283688,-0.7242795,0.1567564,0.467826,-0.478135
9.666930676,-0.7303739,0.1566846,0.4726126,-0.463971
9.699103356,-0.7342582,0.1621407,0.4758534,-0.4525112
9.731276512,-0.7368312,0.1682469,0.4797204,-0.4418924
9.765923500,-0.7399206,0.1727643,0.4847102,-0.4293644
9.798096180,-0.7406271,0.1803094,0.4890892,-0.4199757
9.832740307,-0.738684,0.1912753,0.4947751,-0.4118072
9.864912510,-0.7363972,0.1992518,0.5017107,-0.4036483
9.899560451,-0.7330474,0.2089954,0.5092653,-0.3952707
9.931733131,-0.7286275,0.2194546,0.5172628,-0.3873095
9.966380119,-0.7235757,0.2303153,0.5258388,-0.3788329
9.998553276,-0.7204202,0.2377558,0.5336518,-0.3692022
10.033196449,-0.7171863,0.245937,0.5417592,-0.358167
10.065369129,-0.7153797,0.2510609,0.5500613,-0.3453413
10.100017071,-0.714539,0.2550749,0.5576154,-0.3317584
10.132189751,-0.7143952,0.2574232,0.5637606,-0.3196473
10.166837692,-0.7156584,0.257582,0.5693253,-0.3065632
10.199009895,-0.7154846,0.2597895,0.5732982,-0.2975702
10.233653069,-0.7132608,0.2660617,0.5758849,-0.2923259
10.265826702,-0.7105492,0.2712303,0.5797723,-0.2864363
10.297998905,-0.7086814,0.2741306,0.5848789,-0.2777904
10.332646370,-0.7070367,0.274536,0.5913133,-0.2677781
10.364819527,-0.7057372,0.2745905,0.5947996,-0.2633937
10.399466515,-0.7100057,0.2703006,0.59206,-0.2625301
10.431635857,-0.7188756,0.267988,0.5797583,-0.2681573
10.466283321,-0.7282014,0.2739005,0.5572459,-0.2842637
10.498455525,-0.7278017,0.2867887,0.5452724,-0.2955718
10.533103466,-0.7059076,0.304815,0.5646064,-0.294329
10.565276146,-0.681838,0.3144535,0.5922314,-0.2865409
10.599924088,-0.6723473,0.2981783,0.6156947,-0.2767423
10.632092476,-0.6571915,0.2964032,0.631842,-0.2786534
10.666739464,-0.6351488,0.3061151,0.6489066,-0.2800488
10.698913098,-0.6186172,0.3041985,0.66851,-0.2729432
10.733560085,-0.6059383,0.2975323,0.6850621,-0.2676395
10.765732765,-0.5864627,0.3102925,0.6948647,-0.2712392
10.797905922,-0.5700027,0.3091016,0.7132527,-0.2597143
10.832549095,-0.5561566,0.3054489,0.7268983,-0.2561976
10.864721775,-0.5378713,0.3114534,0.7386035,-0.2545265
10.899369717,-0.5217811,0.3159433,0.7489789,-0.2521561
10.931541920,-0.5141779,0.3124934,0.7575111,-0.2465227
10.966189861,-0.5071678,0.3116853,0.7644404,-0.2406065
10.998362541,-0.5020458,0.3112879,0.7700559,-0.2338621
11.033005714,-0.5035928,0.304064,0.776275,-0.2190071
11.065178871,-0.5093596,0.2920057,0.7822928,-0.1998275
11.099826336,-0.5173294,0.2718655,0.7900466,-0.1758219
11.131999493,-0.5303261,0.2507556,0.7937157,-0.1500625
11.166646481,-0.558521,0.2024221,0.7963877,-0.09733342
11.198819161,-0.5814916,0.1469075,0.7957739,-0.06047522
11.233462811,-0.5975536,0.1064013,0.7905771,-0.05677695
11.265635490,-0.6166616,0.07232488,0.7792653,-0.06221562
11.300283432,-0.6424687,0.03402351,0.7606238,-0.06446192
11.332456112,-0.6646689,-0.008661248,0.7424254,-0.05976843
11.364628315,-0.6839159,-0.04715631,0.7229788,-0.06296521
11.399276257,-0.7036551,-0.08003663,0.700021,-0.07114601
11.431444645,-0.7185739,-0.1084897,0.6798409,-0.07953373
11.466092110,-0.7317937,-0.1328267,0.6597533,-0.09048864
11.498265267,-0.7424279,-0.1486855,0.6428955,-0.1000328
11.532912731,-0.7509724,-0.160625,0.6289208,-0.1064247
11.565084934,-0.7565669,-0.1698144,0.619297,-0.1089417
11.599732876,-0.7625518,-0.1726932,0.6105898,-0.1118013
11.631901264,-0.7669983,-0.1733689,0.6044749,-0.1135549
11.666549206,-0.7709183,-0.1734189,0.5990252,-0.1157903
11.698721886,-0.775131,-0.1710642,0.5936396,-0.1188643
11.733369827,-0.7793661,-0.1716337,0.5877181,-0.1197719
11.765542507,-0.7819273,-0.1755683,0.5835236,-0.11787
11.800189495,-0.7847905,-0.1783762,0.5791006,-0.1164296
11.832358837,-0.7889809,-0.17667,0.5739406,-0.1162618
11.867005825,-0.7934701,-0.1748186,0.5686413,-0.1145353
11.899178505,-0.7980997,-0.1702641,0.5638409,-0.1129519
11.931351662,-0.8033559,-0.1636338,0.5587355,-0.1108394
11.965999126,-0.8097969,-0.154132,0.5527125,-0.1077447
11.998171329,-0.8173783,-0.1397025,0.5456414,-0.1062029
12.032815456,-0.8275793,-0.1176405,0.5351114,-0.1075025
12.064987659,-0.8369082,-0.0968508,0.5244817,-0.1084032
