Time (s),W,X,Y,Z
0.017036438,-0.3012071,0.5878656,-0.6744531,-0.3246983
0.049316883,-0.3014605,0.5883204,-0.674043,-0.3244911
0.081596851,-0.3017192,0.5887461,-0.6736326,-0.3243307
0.116360664,-0.3020058,0.5891451,-0.6732348,-0.3241653
0.148641110,-0.3022826,0.589489,-0.6728801,-0.3240184
0.183403969,-0.3025724,0.5898889,-0.6724766,-0.3238577
0.215684891,-0.3028521,0.5902895,-0.6720795,-0.3236909
0.250447750,-0.303111,0.590663,-0.6717148,-0.3235242
0.282728195,-0.3033433,0.5909863,-0.6714043,-0.3233603
0.315008640,-0.3035264,0.5913249,-0.6710981,-0.3232051
0.349771977,-0.3036766,0.5916447,-0.6708142,-0.3230684
0.382052422,-0.3038894,0.5919815,-0.6704981,-0.3229073
0.416815758,-0.3042001,0.592347,-0.6701007,-0.3227693
0.449096203,-0.3044334,0.5925991,-0.6698129,-0.3226839
0.483860016,-0.3046206,0.5929213,-0.6695053,-0.322554
0.516139984,-0.3046914,0.5932794,-0.6692407,-0.3223774
0.548420429,-0.3047867,0.5935474,-0.6690521,-0.3221855
0.583184242,-0.3049232,0.5937936,-0.6688284,-0.3220673
0.615464687,-0.3050269,0.5940073,-0.6686521,-0.321941
0.650228023,-0.3052139,0.5943266,-0.6683846,-0.32173
0.682508469,-0.3053661,0.5946335,-0.6681179,-0.3215725
0.714788437,-0.3055396,0.5949039,-0.6678382,-0.3214885
0.749552250,-0.3057255,0.5951338,-0.6675856,-0.3214107
0.781832695,-0.3059325,0.5954285,-0.6672788,-0.3213049
0.816595554,-0.3061165,0.5957681,-0.6669447,-0.3211938
0.848875999,-0.3062343,0.59605,-0.6666699,-0.321129
0.883639336,-0.3063585,0.5963638,-0.6663898,-0.3210091
0.915919781,-0.306456,0.5966198,-0.6661823,-0.3208714
0.948200226,-0.3065226,0.5968353,-0.666019,-0.3207456
0.982963562,-0.3066512,0.5970959,-0.6657905,-0.320612
1.015244007,-0.3067737,0.5973548,-0.6655691,-0.3204722
1.050007820,-0.3069415,0.5976079,-0.6653156,-0.3203661
1.082287788,-0.3070938,0.5977802,-0.6651142,-0.3203169
1.117051601,-0.3072023,0.5980124,-0.6648783,-0.3202692
1.149332047,-0.3073025,0.5982495,-0.664669,-0.3201649
1.181612015,-0.3073671,0.5985113,-0.6644553,-0.3200572
1.216375828,-0.3075265,0.5987979,-0.6642035,-0.3198902
1.248656273,-0.3076842,0.5991303,-0.6638992,-0.3197477
1.283419609,-0.3077525,0.5993116,-0.663766,-0.3196194
1.315700054,-0.3078898,0.5994871,-0.6636249,-0.3194509
1.350462914,-0.3080193,0.5997062,-0.6634091,-0.3193628
1.382743836,-0.3081395,0.5998527,-0.6632289,-0.3193462
1.415024281,-0.308248,0.6000094,-0.6630488,-0.3193209
1.449787140,-0.3083405,0.6001868,-0.6628634,-0.3192831
1.482067585,-0.3084098,0.6003704,-0.6626823,-0.3192466
1.516831398,-0.3084463,0.6006541,-0.6624475,-0.3191655
1.549111366,-0.3084958,0.6009279,-0.6622522,-0.3190074
1.581391812,-0.308565,0.6011265,-0.6621062,-0.3188695
1.616155625,-0.3086956,0.6013654,-0.6619021,-0.3187163
1.648435593,-0.3088224,0.6015798,-0.6616989,-0.3186107
1.683199406,-0.3089418,0.6017132,-0.6615436,-0.3185652
1.715479851,-0.3091131,0.6018432,-0.661329,-0.3185992
1.750243187,-0.3093203,0.6019959,-0.6610713,-0.3186443
1.782523632,-0.3094419,0.6021653,-0.660836,-0.3186943
1.814804077,-0.3094825,0.602318,-0.6606836,-0.3186824
1.849567413,-0.3094723,0.6024804,-0.6605704,-0.31862
1.881847858,-0.3095232,0.602604,-0.6604894,-0.318505
1.916611195,-0.3095625,0.6027405,-0.6603711,-0.3184537
1.948891640,-0.309614,0.6028451,-0.6602939,-0.3183655
1.983655453,-0.3097271,0.6029304,-0.6602278,-0.318231
2.015934944,-0.3099033,0.6030999,-0.6600067,-0.3181969
2.048215866,-0.3100367,0.6032557,-0.6597884,-0.3182243
2.082979679,-0.3101026,0.603367,-0.6596547,-0.3182262
2.115259171,-0.3101334,0.6035396,-0.6595045,-0.3181804
2.150022984,-0.3101126,0.6037367,-0.6593591,-0.3181281
2.182303906,-0.3101016,0.6039114,-0.6592284,-0.3180781
2.217066765,-0.3101765,0.6041179,-0.6590933,-0.3178929
2.249347210,-0.3102974,0.6043193,-0.6589448,-0.3176994
2.281627655,-0.3104898,0.6045207,-0.6587498,-0.317533
2.316390991,-0.3106443,0.60462,-0.6585979,-0.3175076
2.348671436,-0.3107945,0.60465,-0.6584979,-0.3175111
2.383434773,-0.3108668,0.604651,-0.6584179,-0.3176042
2.415715218,-0.3109379,0.6047822,-0.6582661,-0.3175995
2.450478554,-0.310977,0.60494,-0.6581432,-0.3175155
2.482758999,-0.3109535,0.6050814,-0.6580726,-0.3174156
2.515039444,-0.3108956,0.6051164,-0.6581061,-0.3173358
2.549802303,-0.3109428,0.605158,-0.6580914,-0.3172408
2.582083225,-0.311071,0.6052222,-0.6579689,-0.3172469
2.616847038,-0.3112243,0.6053911,-0.6577682,-0.3171903
2.649127483,-0.3113503,0.6054871,-0.657647,-0.3171348
2.681407452,-0.311489,0.6055133,-0.6575886,-0.3170696
2.716171265,-0.3115337,0.6055079,-0.6575772,-0.3170597
2.748451710,-0.3115787,0.6055943,-0.657504,-0.3170024
2.783214569,-0.3115818,0.6057457,-0.6573984,-0.316929
2.815495014,-0.3115987,0.6058789,-0.6572884,-0.3168857
2.850258350,-0.3115854,0.6059565,-0.6572206,-0.3168913
2.882538795,-0.3116275,0.6060619,-0.6571225,-0.3168517
2.914819241,-0.3117324,0.6062239,-0.6569782,-0.3167379
2.949582577,-0.3118101,0.606272,-0.6569079,-0.3167148
2.981863022,-0.311877,0.6063118,-0.6568342,-0.3167259
3.016626358,-0.3119985,0.6063809,-0.6567391,-0.3166713
3.048906803,-0.3121391,0.6065139,-0.6565658,-0.3166372
3.083670616,-0.3122216,0.6066619,-0.6564013,-0.3166135
3.115950584,-0.3122291,0.6067854,-0.6562873,-0.3166059
3.148231030,-0.312171,0.6068587,-0.656258,-0.3165829
3.182994843,-0.3120758,0.606997,-0.656224,-0.3164826
3.215275288,-0.3120852,0.6070849,-0.6562003,-0.3163536
3.250038624,-0.3121976,0.6072102,-0.6560616,-0.3162898
3.282319069,-0.3122832,0.6072026,-0.6559945,-0.3163589
3.317081928,-0.312269,0.6071723,-0.6560328,-0.3163522
3.349362373,-0.3122634,0.6072861,-0.6559928,-0.3162219
3.381643295,-0.3121219,0.6073738,-0.6559884,-0.3162022
3.416406155,-0.3120594,0.6073906,-0.6560386,-0.3161275
3.448686600,-0.3122678,0.6073381,-0.6559892,-0.3161252
3.483449936,-0.3123628,0.6074207,-0.6558157,-0.3162326
3.515730381,-0.3121493,0.6076887,-0.6557037,-0.3161609
3.550494194,-0.311832,0.6080089,-0.6556077,-0.3160574
3.582774162,-0.3115477,0.6082574,-0.6557209,-0.3156244
3.615054608,-0.3111051,0.6085283,-0.6560416,-0.3148716
3.649818420,-0.3103731,0.6089245,-0.6564868,-0.3138986
3.682098865,-0.3098624,0.6092287,-0.6567293,-0.3133049
3.716862202,-0.3099283,0.6093277,-0.6566735,-0.313164
3.749142647,-0.310435,0.6091834,-0.6564325,-0.3134481
3.781423092,-0.3110983,0.6089694,-0.6561424,-0.3138137
3.816186428,-0.3115937,0.6088116,-0.6558725,-0.314192
3.848466873,-0.3117368,0.6087576,-0.6557578,-0.3143943
3.883230209,-0.3117409,0.6088262,-0.6557379,-0.3142987
3.915510654,-0.3116395,0.6089841,-0.6557377,-0.3140939
3.950273514,-0.3115413,0.6091427,-0.655733,-0.3138935
3.982553959,-0.3115031,0.6093503,-0.6556452,-0.3137119
4.014834881,-0.3112504,0.6095977,-0.6556765,-0.3134162
4.049598694,-0.3108231,0.6098446,-0.65589,-0.3129127
4.081878185,-0.3103121,0.6100857,-0.6561846,-0.3123323
4.116641998,-0.3099409,0.610291,-0.6564889,-0.3116594
4.148922443,-0.3100603,0.6103283,-0.6565244,-0.3113922
4.183685780,-0.3104245,0.6103018,-0.656284,-0.3115885
4.215966225,-0.3103549,0.6103585,-0.6560518,-0.3120354
4.248246670,-0.310338,0.610295,-0.6556624,-0.3129934
4.283010006,-0.3108481,0.6100053,-0.6551502,-0.3141225
4.315290451,-0.3119062,0.609422,-0.6546738,-0.3151969
4.350053787,-0.3138367,0.6084266,-0.6541815,-0.3162243
4.382334232,-0.3151113,0.6079238,-0.6536907,-0.3169379
4.417098045,-0.3152857,0.6079709,-0.6536971,-0.3166607
4.449378014,-0.3142448,0.6085956,-0.6539304,-0.316013
4.481658459,-0.312845,0.6093283,-0.6543303,-0.315161
4.516422272,-0.3112201,0.6101549,-0.654689,-0.3144251
4.548702240,-0.3098353,0.6107835,-0.6552138,-0.3134775
4.583466053,-0.3087449,0.6112528,-0.6558897,-0.3122225
4.615746498,-0.3093959,0.6109805,-0.6558794,-0.3121327
4.650509357,-0.3104833,0.6105652,-0.6553456,-0.3129857
4.682790279,-0.3115774,0.6100733,-0.6546234,-0.3143659
4.715070724,-0.3123773,0.609833,-0.6539656,-0.3154061
4.749833584,-0.312518,0.6098859,-0.6536433,-0.3158318
4.782114029,-0.3121915,0.6100555,-0.6537683,-0.3155685
4.816877365,-0.3118261,0.610249,-0.6540386,-0.3149952
4.849157810,-0.3118228,0.6102099,-0.6542216,-0.314694
4.881438255,-0.3123421,0.6098983,-0.6541665,-0.3148973
4.916201591,-0.3132607,0.6095408,-0.6536655,-0.3157163
4.948482037,-0.3140018,0.6092839,-0.6531154,-0.3166131
4.983245850,-0.3143728,0.6092051,-0.6527117,-0.3172288
5.015525818,-0.3140911,0.6094197,-0.6527289,-0.3170602
5.050289631,-0.3135626,0.6097789,-0.6529928,-0.3163485
5.082570076,-0.3132689,0.6099804,-0.6531982,-0.3158263
5.114850044,-0.3133572,0.6098443,-0.6532339,-0.315928
5.149613857,-0.3137686,0.6096465,-0.6530329,-0.3163165
5.181894302,-0.3141915,0.6095246,-0.6527014,-0.3168156
5.216657639,-0.3146495,0.6094149,-0.6524786,-0.3170308
5.248938084,-0.3151897,0.6092031,-0.6523732,-0.317118
5.283700943,-0.315751,0.6089565,-0.6521291,-0.3175355
5.315981388,-0.3164447,0.6086041,-0.6519475,-0.317893
5.348262310,-0.3175769,0.6080844,-0.6514428,-0.3187915
5.383025169,-0.3191623,0.6073152,-0.650696,-0.3201971
5.415305615,-0.3204813,0.6066061,-0.650084,-0.3214642
5.450069428,-0.3214529,0.6060891,-0.6495746,-0.3224976
5.482349396,-0.3221028,0.6057335,-0.6492072,-0.3232559
5.517113209,-0.3227701,0.6054413,-0.6487252,-0.3241041
5.549393654,-0.3231706,0.6050777,-0.6484329,-0.3249681
5.581673622,-0.3230405,0.6049669,-0.6484125,-0.3253438
5.616437435,-0.3219804,0.6055378,-0.6488023,-0.3245549
5.648717880,-0.3200843,0.6064625,-0.649694,-0.3229158
5.683481216,-0.3170364,0.6079948,-0.6507698,-0.3208685
5.715761661,-0.3135436,0.6098449,-0.6515519,-0.3191981
5.748042107,-0.3093855,0.6120971,-0.651843,-0.3183493
5.782805443,-0.3036246,0.6150486,-0.6520613,-0.3177595
5.815085888,-0.2980756,0.6177601,-0.6519106,-0.3180623
5.849848747,-0.2933868,0.6198052,-0.6510155,-0.320269
5.882129669,-0.2909504,0.6203651,-0.6493736,-0.32471
5.916893482,-0.2910284,0.6194374,-0.6448873,-0.3351834
5.949173927,-0.2982432,0.6148402,-0.6363611,-0.3531216
5.981453896,-0.3115724,0.6069162,-0.6255258,-0.3740595
6.016217709,-0.3259444,0.5984406,-0.6141548,-0.3937902
6.048498154,-0.336989,0.591565,-0.6047361,-0.4091594
6.083261013,-0.3452996,0.5857,-0.5975201,-0.421095
6.115541458,-0.3496363,0.5821531,-0.593331,-0.4282969
6.150304794,-0.351462,0.5801439,-0.5907223,-0.433108
6.182585239,-0.3512374,0.5796145,-0.5897118,-0.4353699
6.214865685,-0.3489966,0.5802799,-0.5900243,-0.4358619
6.249629021,-0.3446178,0.5820168,-0.5922763,-0.4339717
6.281909466,-0.3379948,0.5848157,-0.5961425,-0.4301069
6.316673279,-0.3297578,0.5883639,-0.6001634,-0.4260509
6.348953247,-0.3231604,0.5910256,-0.6029082,-0.4235392
6.383717060,-0.3173594,0.5931838,-0.605088,-0.4217964
6.415997505,-0.3130088,0.5951479,-0.6059662,-0.4210192
6.448277474,-0.310137,0.5963544,-0.6059084,-0.4215202
6.483041287,-0.308072,0.5971534,-0.6058332,-0.4220113
6.515321732,-0.3067731,0.5976004,-0.6057045,-0.422509
6.550085068,-0.3057256,0.5978712,-0.6052389,-0.423551
6.582365513,-0.3051857,0.5977355,-0.6043475,-0.4254007
6.617128372,-0.3045646,0.5974279,-0.6033878,-0.4276345
6.649408817,-0.303656,0.5973436,-0.602536,-0.4295949
6.681689739,-0.3030295,0.596993,-0.6013947,-0.4321163
6.716452599,-0.3015734,0.597044,-0.6008524,-0.4338157
6.748733044,-0.2995964,0.5974919,-0.6002704,-0.4353717
6.783496857,-0.296818,0.5983198,-0.6000196,-0.436482
6.815776825,-0.2920042,0.6000389,-0.6011606,-0.4357984
6.848057270,-0.2864567,0.6021746,-0.6022599,-0.4350162
6.882821083,-0.2813309,0.6039294,-0.6027215,-0.4352893
6.915101528,-0.2765505,0.6055856,-0.6032695,-0.4352925
6.949864864,-0.2710418,0.6072699,-0.6042817,-0.4350066
6.982145309,-0.2653602,0.6089449,-0.6051838,-0.4349142
7.016908646,-0.2601877,0.6102908,-0.6055993,-0.4355741
7.049189091,-0.2571666,0.6107363,-0.6055956,-0.4367472
7.081469536,-0.2553093,0.610648,-0.6047809,-0.4390831
7.116232872,-0.2549008,0.6097978,-0.6030436,-0.442875
7.148513317,-0.2553413,0.6085246,-0.60123,-0.4468207
7.183277130,-0.2570475,0.6065131,-0.5989602,-0.4516002
7.215557098,-0.2590258,0.6046337,-0.5967267,-0.455926
7.250320911,-0.2610461,0.6028458,-0.5950547,-0.4593141
7.282601357,-0.2622533,0.6016843,-0.5942435,-0.4611959
7.314881325,-0.2630552,0.6008649,-0.593899,-0.4622497
7.349645138,-0.2631517,0.6004001,-0.5943531,-0.4622153
7.381925583,-0.2621444,0.6004502,-0.5952607,-0.461554
7.416688442,-0.2613907,0.6004145,-0.5960164,-0.4610527
7.448968887,-0.262018,0.5998237,-0.5968057,-0.4604442
7.483732224,-0.2628106,0.5994088,-0.5978037,-0.4592365
7.516012669,-0.2637323,0.5989997,-0.5984832,-0.4583558
7.548293114,-0.2663685,0.5980901,-0.5979073,-0.458771
7.583056450,-0.2710332,0.5971912,-0.5958441,-0.4598926
7.615336895,-0.2762694,0.5975576,-0.5933583,-0.4595145
7.650100708,-0.2802473,0.6010448,-0.5905398,-0.4561767
7.682380676,-0.2799451,0.6095975,-0.5871886,-0.4492871
7.717144489,-0.2721659,0.6240738,-0.5822553,-0.4405271
7.749424934,-0.2595057,0.6360785,-0.5814336,-0.4319995
7.781705379,-0.2425946,0.6487796,-0.5830168,-0.4206564
7.816468716,-0.2212104,0.6658118,-0.582893,-0.4057386
7.848749161,-0.2026192,0.683042,-0.579488,-0.3914337
7.883512497,-0.1886612,0.7040765,-0.5678552,-0.3779567
7.915792942,-0.1824704,0.7272773,-0.5469168,-0.3678067
7.948073387,-0.1782239,0.752852,-0.5188137,-0.3590404
7.982836723,-0.1671057,0.7825969,-0.4845081,-0.3485647
8.015117168,-0.147734,0.8076202,-0.4488099,-0.3480252
8.049880981,-0.1224663,0.8274532,-0.4128243,-0.3557062
8.082160473,-0.1011557,0.8419566,-0.3746818,-0.370294
8.116924286,-0.08068867,0.8545286,-0.3272802,-0.3908779
8.149205208,-0.06500518,0.8616617,-0.2796046,-0.4144424
8.181484699,-0.05330155,0.8651553,-0.2300077,-0.438622
8.216248512,-0.04477752,0.8643859,-0.1776603,-0.4646465
8.248528957,-0.03971773,0.8583163,-0.1308466,-0.4911439
8.283292294,-0.03763139,0.8478598,-0.08380815,-0.5189618
8.315572739,-0.03823281,0.8360372,-0.04531024,-0.5423604
8.350336075,-0.04103426,0.8196731,-0.007666211,-0.5683495
8.382616520,-0.05103672,0.8033415,0.02763343,-0.5898319
8.414896965,-0.0691852,0.789957,0.05944108,-0.6035525
8.449660778,-0.08800624,0.7774419,0.08737618,-0.6138664
8.481940746,-0.1012172,0.7655597,0.1050425,-0.6239127
8.516704559,-0.1047699,0.7519737,0.1135862,-0.6381886
8.548985005,-0.09817988,0.7413312,0.1140662,-0.651464
8.583748341,-0.08521916,0.7316108,0.1102427,-0.664799
8.616028786,-0.06981722,0.7232612,0.1097223,-0.6757274
8.648309231,-0.05312459,0.7159162,0.1129165,-0.6844848
8.683072567,-0.03377396,0.7082869,0.1202596,-0.6923541
8.715353012,-0.01509121,0.7020275,0.1297433,-0.6976561
8.750115871,0.004006213,0.6961653,0.1395381,-0.7017796
8.782396793,0.02037287,0.6927923,0.1461762,-0.7034799
8.817160606,0.03527606,0.6915326,0.1493593,-0.7034612
8.849440098,0.0456996,0.6910322,0.1480164,-0.7036369
8.881720543,0.05103715,0.6900064,0.1429866,-0.7053147
8.916484356,0.05028892,0.6883435,0.1350412,-0.7085519
8.948764324,0.04465773,0.6855282,0.1272621,-0.713084
8.983528137,0.03685005,0.6808084,0.1193793,-0.7193875
9.015808582,0.03061177,0.674979,0.111817,-0.7263544
9.048089027,0.02686548,0.6685464,0.1039984,-0.7335775
9.082852364,0.02694318,0.6622272,0.0945337,-0.7405539
9.115132809,0.03051643,0.6574791,0.08547861,-0.7457285
9.149896145,0.03590972,0.6539818,0.07744897,-0.7494315
9.182176590,0.04086756,0.6525653,0.0722628,-0.7509289
9.216940403,0.04673066,0.6522541,0.07020593,-0.7510524
9.249220371,0.0515835,0.6536436,0.07155192,-0.7493978
9.281500816,0.05530806,0.6571778,0.07607309,-0.7455863
9.316264629,0.05954669,0.6628812,0.08324752,-0.7394189
9.348544598,0.06481136,0.6691625,0.08968451,-0.7325336
9.383308411,0.07154579,0.6763206,0.09475608,-0.7246521
9.415588856,0.07798494,0.6829154,0.09783406,-0.7173571
9.450351715,0.08453899,0.6893756,0.09897347,-0.7102438
9.482632637,0.08939707,0.6941954,0.09893199,-0.7049405
9.514913082,0.09188274,0.6975467,0.09936902,-0.7012415
9.549675942,0.09222972,0.6993766,0.1015318,-0.6990601
9.581956864,0.09136448,0.699923,0.1048583,-0.6981352
9.616719723,0.09000417,0.6995655,0.1087809,-0.69807
9.649000168,0.08837141,0.6988191,0.1118584,-0.6985397
9.683763981,0.08669248,0.6977568,0.1144661,-0.6993892
9.716043949,0.08477196,0.6965731,0.1158661,-0.7005729
9.748324394,0.08227682,0.6948925,0.1175223,-0.7022615
9.783088207,0.07897364,0.693,0.1200682,-0.7040777
9.815368652,0.07576002,0.6913168,0.1228422,-0.7056054
9.850131988,0.07307772,0.689356,0.1262502,-0.7072033
9.882412434,0.07181818,0.6874935,0.1295291,-0.7085512
9.914692879,0.07152929,0.685563,0.1323434,-0.7099295
9.949456215,0.07263433,0.6832996,0.135617,-0.71138
9.981736660,0.07488648,0.6809697,0.1386644,-0.7127919
10.016499996,0.07882241,0.6786228,0.14091,-0.714164
10.048780441,0.08472373,0.6763054,0.1423881,-0.7153925
10.083544254,0.08665495,0.6758552,0.146119,-0.714834
10.115824223,0.08699072,0.6756758,0.1513939,-0.7138644
10.148104668,0.08783701,0.6761659,0.1553386,-0.7124478
10.182868481,0.08760919,0.6776007,0.1577292,-0.7105851
10.215147972,0.08662357,0.6792324,0.1604581,-0.7085342
10.249911785,0.08494702,0.6819237,0.1651358,-0.7050688
10.282192707,0.0797584,0.6852192,0.1718598,-0.7008603
10.316955566,0.06887847,0.6904142,0.1820873,-0.6943024
10.349236012,0.05281552,0.6974851,0.1930444,-0.6856286
10.381516934,0.03137545,0.7047723,0.2080888,-0.6750098
10.416279793,0.004298585,0.7122803,0.2278127,-0.6613375
10.448560238,-0.0222846,0.717526,0.2466944,-0.6484051
10.483324051,-0.05054083,0.7205741,0.2672985,-0.6351358
10.515604019,-0.0766433,0.7218556,0.2836642,-0.623869
10.550367832,-0.1039758,0.7211434,0.2982889,-0.6138343
10.582648277,-0.1309197,0.717762,0.3107375,-0.6064219
10.614928723,-0.1605264,0.7114372,0.3269021,-0.5982064
10.649692058,-0.1968128,0.7006857,0.3495801,-0.5871334
10.681972504,-0.2303288,0.6884964,0.3698855,-0.5768308
10.716735840,-0.2553561,0.6793526,0.3878026,-0.5652524
10.749016285,-0.2630134,0.6793837,0.3930661,-0.558022
10.783780098,-0.2499532,0.6889945,0.3818235,-0.5600432
10.816060066,-0.2203614,0.7012321,0.3579546,-0.5728965
10.848340511,-0.1828049,0.711956,0.3232045,-0.5931843
10.883104324,-0.1444298,0.7208103,0.2823815,-0.613564
10.915384293,-0.1172645,0.725365,0.2468319,-0.6291235
10.950148106,-0.09866957,0.7247727,0.2143381,-0.6447136
10.982428551,-0.09197454,0.7233853,0.1996586,-0.6519343
11.014708042,-0.09579555,0.7227893,0.1986978,-0.6523385
11.049471855,-0.1004141,0.7227622,0.2022951,-0.650566
11.081752777,-0.09859395,0.7236986,0.2017884,-0.6499606
11.116515636,-0.09374548,0.7264064,0.1942623,-0.6499503
11.148796082,-0.08915307,0.73035,0.1837307,-0.6492391
11.183559895,-0.08631422,0.7338802,0.1743144,-0.6482375
11.215839863,-0.08714312,0.7364248,0.1703944,-0.6462802
11.248120308,-0.08972623,0.7391533,0.169494,-0.6430404
11.282884121,-0.08986759,0.7418699,0.1666278,-0.640637
11.315164089,-0.08915053,0.7433528,0.1615864,-0.6403097
11.349927902,-0.09083826,0.7441713,0.1570183,-0.6402583
11.382208347,-0.09298526,0.7449749,0.1547093,-0.6395772
11.416971684,-0.09341054,0.7456687,0.1527203,-0.6391847
11.449252129,-0.09235215,0.7466149,0.1502962,-0.6388084
11.481532574,-0.0908514,0.7478346,0.1477261,-0.6381961
11.516295910,-0.08946041,0.7493017,0.1448059,-0.6373404
11.548576355,-0.08792342,0.7508818,0.14206,-0.6363118
11.583340168,-0.08546872,0.752319,0.1381425,-0.6358109
11.615620136,-0.08365829,0.7537127,0.1328824,-0.6355223
11.650383949,-0.07933664,0.7541637,0.1312629,-0.6358777
11.682664394,-0.07454356,0.7531409,0.1336603,-0.6371691
11.714944363,-0.0745394,0.7476387,0.1304588,-0.6442735
11.749708176,-0.07268819,0.7471257,0.1332369,-0.6445116
11.781988621,-0.07197611,0.7472262,0.1363581,-0.6438218
11.816751480,-0.06915641,0.7468398,0.1353099,-0.6447996
11.849031925,-0.06731203,0.7465893,0.1336084,-0.6456392
11.883795261,-0.06545433,0.7465106,0.1322991,-0.6461906
11.916075706,-0.06379333,0.7462495,0.1314971,-0.6468216
11.948356152,-0.06259245,0.7460989,0.1303571,-0.6473433
11.983119965,-0.06179818,0.7464058,0.1289877,-0.6473401
12.015399933,-0.06076277,0.7468758,0.1280667,-0.6470789
12.050163746,-0.0590237,0.7474383,0.1268657,-0.6468269
12.082444191,-0.05674865,0.7479399,0.1248715,-0.6468387
12.114724636,-0.0543751,0.7484295,0.1227544,-0.6468816
12.149487972,-0.05206147,0.748905,0.1208278,-0.6468843
