Time (s),Percentage (%),Time To Empty (minutes),Voltage (V),Current (mA),Is Charger Connected (Boolean)
0.929762840,79.67188,129,3.96125,256.875,0
1.984371662,79.66016,129,3.963125,267.5,0
2.863446236,79.64844,128.8125,3.965625,256.875,0
3.918229103,79.63672,128.34375,3.9675,265.9375,0
4.973065853,79.625,128.0625,3.965,270.3125,0
5.852353096,79.625,128.0625,3.965,269.0625,0
6.906852245,79.61328,128.0625,3.963125,255.9375,0
7.961530209,79.60156,128.0625,3.95875,265.9375,0
8.840630531,79.58984,128.0625,3.964375,252.1875,0
9.895426273,79.57422,128.34375,3.964375,255.9375,0
10.950337887,79.5625,128.15625,3.96375,263.75,0
11.829102039,79.5625,128.0625,3.963125,261.875,0
12.883899689,79.55078,128.25,3.96625,250.3125,0
13.938858986,79.53906,127.875,3.96375,285.3125,0
14.817822456,79.52734,127.875,3.965625,259.375,0
15.872851849,79.51563,127.875,3.965,258.75,0
16.927281380,79.50391,127.875,3.96375,255.3125,0
17.982206345,79.49219,127.78125,3.96375,271.5625,0
18.861066818,79.49219,127.96875,3.96375,251.5625,0
19.916048527,79.47656,128.0625,3.966875,254.0625,0
20.970786571,79.46484,127.875,3.958125,274.6875,0
21.849844456,79.45313,128.0625,3.965625,260,0
22.904856682,79.44141,127.96875,3.963125,257.8125,0
23.959413528,79.42969,127.6875,3.963125,268.4375,0
24.838480473,79.41797,127.5,3.961875,254.0625,0
25.893177032,79.41797,127.40625,3.963125,249.0625,0
26.948192596,79.40625,127.59375,3.9625,258.125,0
27.826841831,79.39453,127.59375,3.964375,263.75,0
28.881843567,79.37891,127.5,3.96375,250.9375,0
29.936426163,79.36719,127.96875,3.96375,267.5,0
30.991382599,79.35547,128.15625,3.96375,261.875,0
31.870430469,79.35547,128.15625,3.96375,257.1875,0
32.925190926,79.34375,128.53125,3.96375,265,0
33.980214596,79.33203,128.71875,3.963125,266.5625,0
34.858817100,79.32031,128.4375,3.963125,256.875,0
35.913783073,79.30859,128.4375,3.9625,269.375,0
36.968542576,79.29688,128.25,3.96125,266.875,0
37.848011494,79.29688,128.15625,3.961875,265,0
38.902233601,79.28125,128.0625,3.96375,258.75,0
39.957192898,79.26953,128.4375,3.963125,256.25,0
40.836030960,79.25781,128.625,3.96,260,0
41.890911579,79.24609,128.53125,3.961875,260.3125,0
42.946182728,79.23438,128.8125,3.96125,258.125,0
43.825017452,79.23438,128.8125,3.96375,261.5625,0
44.879883289,79.22266,128.4375,3.9625,266.5625,0
45.934175014,79.21094,128.53125,3.96125,265.625,0
46.989140511,79.19922,128.71875,3.963125,264.6875,0
47.868151665,79.18359,128.53125,3.9625,262.5,0
48.923161983,79.17188,128.625,3.960625,279.6875,0
49.977568626,79.16016,128.625,3.963125,256.875,0
50.856834412,79.16016,128.625,3.960625,282.1875,0
51.911346912,79.14844,128.53125,3.95875,266.5625,0
52.966260433,79.13672,128.71875,3.9625,252.1875,0
53.845313072,79.125,128.625,3.96375,272.8125,0
54.900134563,79.11328,128.53125,3.96125,275.3125,0
55.955136776,79.10156,128.53125,3.96375,254.375,0
56.833820820,79.10156,128.53125,3.956875,263.125,0
57.888679981,79.08594,128.625,3.959375,258.125,0
58.943489075,79.07422,128.4375,3.9625,253.75,0
59.822336197,79.0625,128.53125,3.963125,261.5625,0
60.877114296,79.05078,128.4375,3.960625,277.8125,0
61.932155609,79.03906,128.71875,3.963125,255.625,0
62.986706257,79.02734,128.53125,3.96,275.625,0
63.865863800,79.02734,128.625,3.95875,259.6875,0
64.920704842,79.01563,128.8125,3.961875,259.6875,0
65.975736618,79.00391,128.53125,3.960625,268.75,0
66.854384422,78.98828,128.625,3.96,272.5,0
67.909090519,78.97656,128.90625,3.959375,258.75,0
68.964034080,78.96484,128.8125,3.96,255.9375,0
69.842998028,78.96484,129.09375,3.960625,275,0
70.897692680,78.95313,128.90625,3.960625,259.6875,0
71.952740192,78.94141,128.71875,3.963125,254.0625,0
72.831635475,78.92969,128.625,3.960625,259.6875,0
73.886307240,78.91797,128.625,3.95875,258.125,0
74.941204071,78.90625,128.71875,3.96,253.4375,0
75.820224762,78.90625,128.90625,3.961875,268.4375,0
76.875054359,78.89063,129,3.961875,258.75,0
77.929665565,78.87891,129.1875,3.96125,262.8125,0
78.984515190,78.86719,129.28125,3.961875,267.5,0
79.863435745,78.85547,129,3.960625,261.25,0
80.918359280,78.84375,128.90625,3.96,253.125,0
81.973862648,78.84375,128.8125,3.9575,257.8125,0
82.852032185,78.83203,128.8125,3.9625,262.1875,0
83.907034397,78.82031,128.8125,3.959375,261.5625,0
84.961649418,78.80859,128.625,3.960625,254.0625,0
85.840768814,78.79297,128.34375,3.95875,261.875,0
86.895560741,78.78125,127.875,3.959375,273.125,0
87.950901508,78.76953,127.3125,3.959375,260.625,0
88.829430580,78.76953,127.3125,3.959375,271.5625,0
89.884009838,78.75781,127.3125,3.960625,268.75,0
90.938983917,78.74609,127.59375,3.961875,270,0
91.817921638,78.73438,127.78125,3.960625,257.1875,0
92.872634411,78.72266,127.40625,3.9625,262.8125,0
93.927901745,78.71094,127.03125,3.960625,268.125,0
94.982487679,78.69531,127.21875,3.95875,267.5,0
95.861176014,78.69531,127.59375,3.963125,251.25,0
96.916123867,78.68359,127.21875,3.95875,254.0625,0
97.970924854,78.67188,127.21875,3.956875,263.75,0
98.850012302,78.66016,127.21875,3.96,258.125,0
99.904898643,78.64844,127.125,3.95875,261.25,0
100.959487438,78.63672,127.3125,3.958125,256.875,0
101.838364124,78.63672,126.9375,3.958125,263.125,0
102.893382549,78.625,126.9375,3.95875,263.75,0
103.947984695,78.61328,127.03125,3.96125,255,0
104.826992989,78.59766,127.5,3.95875,255,0
105.881891251,78.58594,127.5,3.9575,258.4375,0
106.936629772,78.57422,127.59375,3.958125,257.1875,0
107.815700531,78.57422,127.78125,3.958125,246.5625,0
108.870493412,78.5625,127.875,3.958125,256.875,0
109.925848961,78.55078,127.875,3.9575,261.875,0
110.979928970,78.53906,127.59375,3.954375,270.625,0
111.859063148,78.52734,127.59375,3.96,263.75,0
112.913892269,78.51563,127.6875,3.95875,258.75,0
113.968672752,78.51563,127.78125,3.958125,259.6875,0
114.847843647,78.5,127.875,3.96,243.75,0
115.902436256,78.48828,127.875,3.958125,245.625,0
116.957201004,78.47656,127.875,3.956875,251.25,0
117.836112499,78.46484,127.875,3.9575,256.875,0
118.891092300,78.45313,127.875,3.95875,255.9375,0
119.945870876,78.44141,127.59375,3.958125,263.4375,0
120.824839592,78.44141,127.59375,3.958125,268.4375,0
121.879897594,78.42969,127.59375,3.95625,259.6875,0
122.934316158,78.41797,127.5,3.95875,258.75,0
123.989217281,78.40234,127.6875,3.955625,253.4375,0
124.868262291,78.39063,127.78125,3.958125,248.4375,0
125.922874451,78.37891,127.6875,3.954375,278.125,0
126.977909088,78.37891,127.5,3.955,268.75,0
127.856869221,78.36719,127.3125,3.95625,256.875,0
128.911456108,78.35547,127.3125,3.955,272.5,0
129.966472149,78.34375,127.3125,3.956875,260.625,0
130.845420837,78.33203,127.5,3.958125,264.6875,0
131.900156498,78.32031,127.3125,3.955,284.0625,0
132.954892635,78.30469,127.5,3.95625,263.75,0
133.833853245,78.30469,127.3125,3.9575,250,0
134.888831615,78.29297,127.21875,3.954375,264.0625,0
135.943572044,78.28125,127.21875,3.95375,267.5,0
136.822838306,78.26953,127.125,3.958125,262.5,0
137.877222538,78.25781,126.75,3.955,274.375,0
138.932045460,78.24609,126.28125,3.954375,274.375,0
139.986835957,78.23438,125.71875,3.95375,279.375,0
140.866003036,78.23438,125.71875,3.9575,254.0625,0
141.920815468,78.22266,125.90625,3.955,273.4375,0
142.975537300,78.20703,126.09375,3.956875,261.5625,0
143.854819775,78.19531,126.375,3.955,258.125,0
144.909219265,78.18359,126.46875,3.954375,264.375,0
145.964137077,78.17188,126.65625,3.953125,269.375,0
146.843161106,78.17188,126.75,3.956875,255,0
147.897793770,78.16016,126.75,3.955625,273.125,0
148.952825069,78.14844,126.75,3.95625,262.1875,0
149.831741810,78.13672,126.84375,3.95625,265,0
150.886370182,78.125,126.28125,3.954375,315,0
151.941288471,78.10938,126.5625,3.956875,268.75,0
152.820780277,78.10938,126.65625,3.955,257.5,0
153.875390530,78.09766,126.75,3.954375,264.375,0
154.929768085,78.08594,126.65625,3.95375,278.75,0
155.984564781,78.07422,126.65625,3.955625,255.9375,0
156.863691330,78.0625,126.65625,3.953125,245.625,0
157.918465614,78.05078,127.03125,3.95125,265.3125,0
158.973701954,78.05078,127.125,3.9525,254.375,0
159.852387428,78.03906,127.125,3.953125,272.1875,0
160.906986237,78.02734,127.125,3.9525,281.875,0
161.961859703,78.01172,127.125,3.955625,260.9375,0
162.840906143,78,126.75,3.951875,270.3125,0
163.895519733,77.98828,126.65625,3.954375,254.375,0
164.950694561,77.98828,126.84375,3.95375,269.375,0
165.829386234,77.97656,126.84375,3.95375,274.0625,0
166.884188175,77.96484,126.5625,3.953125,254.375,0
167.939051151,77.95313,126.46875,3.958125,253.125,0
168.818053246,77.94141,126.5625,3.953125,252.5,0
169.872748375,77.92969,126.65625,3.951875,259.0625,0
170.927647114,77.91406,126.65625,3.95125,268.75,0
171.982301235,77.91406,126.75,3.953125,260,0
172.861447334,77.90234,126.75,3.953125,271.5625,0
173.916246414,77.89063,126.65625,3.951875,257.5,0
174.970876694,77.87891,126.5625,3.95625,260.625,0
175.850495815,77.86719,126.5625,3.95375,244.6875,0
176.904710293,77.85547,126.84375,3.955,255.3125,0
177.959606171,77.85547,126.65625,3.95125,263.75,0
178.838608742,77.84375,126.84375,3.95375,255.9375,0
179.893677711,77.83203,126.84375,3.954375,262.8125,0
180.948709011,77.81641,127.03125,3.95375,252.5,0
181.827103138,77.80469,126.84375,3.95125,276.25,0
182.881880283,77.79297,126.65625,3.9525,252.1875,0
183.936805725,77.78125,126.5625,3.951875,262.8125,0
184.815863609,77.78125,126.1875,3.949375,273.125,0
185.870505810,77.76953,126.09375,3.95125,261.25,0
186.925662041,77.75781,125.71875,3.951875,253.4375,0
187.980103493,77.74609,125.625,3.950625,256.875,0
188.859220982,77.73438,125.53125,3.951875,264.6875,0
189.914042473,77.71875,125.34375,3.955,262.5,0
190.968639374,77.70703,125.25,3.951875,255.625,0
191.847632408,77.70703,125.4375,3.951875,249.375,0
192.902536869,77.69531,125.4375,3.953125,255,0
193.957246780,77.68359,125.15625,3.950625,252.8125,0
194.836437702,77.67188,125.4375,3.9525,264.6875,0
195.891078472,77.66016,125.34375,3.95125,270.9375,0
196.946065903,77.64844,125.71875,3.953125,267.8125,0
197.825189114,77.64844,125.71875,3.95,260.3125,0
198.879626751,77.63672,125.53125,3.95,259.0625,0
199.934553623,77.62109,125.53125,3.95125,256.25,0
200.989381790,77.60938,125.8125,3.95,252.1875,0
201.868644714,77.59766,125.71875,3.9525,267.5,0
202.923063755,77.58594,125.71875,3.953125,255.625,0
203.977803230,77.58594,125.90625,3.951875,295.625,0
204.856929779,77.57422,125.71875,3.951875,254.375,0
205.911730289,77.5625,125.4375,3.95125,265,0
