Time (s),Percentage (%),Time To Empty (minutes),Voltage (V),Current (mA),Is Charger Connected (Boolean)
0.063341141,85.35156,140.625,4.004375,249.0625,0
0.942389965,85.33594,140.8125,3.9975,260,0
1.997381210,85.32422,140.8125,4.005,261.25,0
3.051955700,85.3125,141,4.005625,260.3125,0
3.930891037,85.30078,141.1875,4.003125,265.9375,0
4.985844135,85.30078,141,4.005,249.375,0
6.040444851,85.28906,141,4.001875,262.5,0
6.919419289,85.27734,140.90625,4.00625,255,0
7.974400520,85.26563,141.1875,4.00375,269.375,0
9.029199600,85.25391,140.625,4.004375,259.0625,0
9.908206463,85.23828,140.34375,4.003125,263.125,0
10.962858677,85.22656,140.25,4.003125,250.3125,0
12.017894745,85.22656,140.0625,4.000625,263.75,0
13.072402954,85.21484,140.15625,4.004375,252.1875,0
13.951838493,85.20313,140.53125,4.005,268.4375,0
15.006417274,85.19141,140.4375,4.001875,262.8125,0
16.061247826,85.17969,140.53125,4,273.75,0
16.940155983,85.17969,140.53125,4.00375,251.5625,0
17.994940758,85.16797,140.53125,3.999375,258.4375,0
19.050082684,85.15625,140.53125,4.001875,259.375,0
19.928511143,85.14063,140.53125,4.00375,252.1875,0
20.983612537,85.12891,140.8125,4.00125,263.125,0
22.038354397,85.11719,140.8125,4.0025,253.4375,0
22.917325973,85.11719,141,4.001875,252.5,0
23.972242832,85.10547,140.625,4.003125,248.125,0
25.027094364,85.09375,140.71875,3.99875,251.25,0
26.081721783,85.08203,140.71875,4.001875,250,0
26.960717201,85.07031,140.625,4.00375,255.3125,0
28.015504837,85.05859,141,4.00125,281.25,0
29.070188522,85.04297,140.90625,4.00125,260.625,0
29.949224472,85.04297,141.09375,4,271.25,0
31.003991604,85.03125,140.90625,4,267.8125,0
32.058692932,85.01953,140.71875,4.001875,276.5625,0
32.937853336,85.00781,141,4.00125,253.125,0
33.992599487,84.99609,140.90625,4.0025,278.4375,0
35.047290802,84.99609,141,4.003125,255.9375,0
35.926344395,84.98438,140.8125,3.998125,262.1875,0
36.981248856,84.97266,140.4375,4,266.5625,0
38.036189079,84.96094,140.4375,4.00125,250.9375,0
38.915229321,84.94531,140.4375,4,262.5,0
39.969874859,84.93359,140.34375,3.999375,250.625,0
41.024492741,84.93359,140.4375,4.00125,257.1875,0
42.079382896,84.92188,140.25,3.998125,265.9375,0
42.958702564,84.91016,140.25,4.003125,258.125,0
44.013120174,84.89844,140.625,3.996875,255.9375,0
45.067918301,84.88672,140.625,4.00125,266.5625,0
45.947055817,84.875,140.625,3.999375,266.875,0
47.001688957,84.875,140.15625,4,262.5,0
48.056711197,84.86328,140.25,4,255.3125,0
48.935734749,84.84766,140.25,4.000625,263.125,0
49.990382671,84.83594,140.0625,4.000625,261.25,0
51.045231819,84.82422,139.96875,3.999375,307.1875,0
51.924240589,84.8125,140.0625,3.999375,247.1875,0
52.979068279,84.8125,139.96875,3.9975,274.6875,0
54.033729553,84.80078,139.96875,3.998125,268.75,0
54.912779331,84.78906,139.875,3.999375,261.875,0
55.968133450,84.77734,139.6875,4.000625,263.75,0
57.022214413,84.76563,139.5,4,265.625,0
58.077155590,84.75,139.40625,4.00125,253.125,0
58.956132889,84.75,139.5,3.9975,250.9375,0
60.010755539,84.73828,139.6875,3.995,257.8125,0
61.065530777,84.72656,139.59375,3.999375,264.0625,0
61.945149422,84.71484,139.21875,3.99875,255.625,0
62.999408722,84.70313,138.65625,3.996875,273.75,0
64.054398537,84.69141,138.65625,3.99875,258.4375,0
64.933304787,84.69141,139.125,3.9975,258.75,0
65.988098145,84.67969,139.125,3.998125,272.5,0
67.042909145,84.66797,138.84375,4,266.875,0
67.921942711,84.65234,139.03125,4,250.625,0
68.977059364,84.64063,139.125,3.999375,247.8125,0
70.031431675,84.62891,139.125,3.998125,268.75,0
70.911145687,84.62891,139.21875,3.999375,252.8125,0
71.965271473,84.61719,139.21875,3.99875,263.125,0
73.019960880,84.60547,139.5,4,264.0625,0
74.074800968,84.59375,139.5,3.998125,264.0625,0
74.954021454,84.58203,139.5,3.99625,274.6875,0
76.008538723,84.57031,139.40625,3.99875,272.8125,0
77.063448429,84.55469,139.21875,3.99625,265.9375,0
77.942408085,84.55469,139.40625,3.999375,245.625,0
78.997220993,84.54297,139.5,3.99625,256.5625,0
80.051991463,84.53125,139.59375,3.996875,256.875,0
80.931044579,84.51953,139.59375,4.000625,254.0625,0
81.985891342,84.50781,139.59375,3.99625,280.9375,0
83.040740967,84.50781,139.6875,3.9975,266.5625,0
83.919553757,84.49609,139.6875,3.994375,266.875,0
84.974469662,84.48438,140.0625,3.9975,253.125,0
86.029082298,84.47266,139.96875,3.994375,273.75,0
86.908290386,84.45703,139.78125,3.995,256.25,0
87.963133335,84.44531,139.6875,3.998125,265.625,0
89.017788887,84.44531,139.6875,3.995625,260.9375,0
90.072662830,84.43359,139.59375,3.996875,270.3125,0
90.951665878,84.42188,139.40625,3.9975,277.5,0
92.006426334,84.41016,139.6875,3.99875,265,0
93.061138153,84.39844,139.21875,3.9975,266.5625,0
93.940105438,84.38672,139.40625,3.996875,254.0625,0
94.994850159,84.38672,139.40625,3.995,251.25,0
96.049809456,84.375,139.40625,3.9975,264.0625,0
96.928600788,84.35938,139.3125,3.995625,243.75,0
97.983515263,84.34766,139.125,3.996875,270.625,0
99.038275719,84.33594,139.125,3.9975,256.25,0
99.917089939,84.32422,139.21875,3.995625,262.5,0
100.972076893,84.32422,139.125,3.996875,268.75,0
102.026721001,84.3125,139.125,3.995625,255.9375,0
103.081657887,84.30078,139.125,3.994375,277.5,0
103.960729599,84.28906,139.21875,3.994375,273.4375,0
105.015569687,84.27734,139.21875,3.996875,245.3125,0
106.070276260,84.26172,139.3125,3.995625,251.25,0
106.949175358,84.26172,139.21875,3.9975,247.5,0
108.003961563,84.25,139.03125,3.995625,270.625,0
109.058942318,84.23828,139.125,3.995,248.75,0
109.938027859,84.22656,139.03125,3.993125,282.5,0
110.992732048,84.21484,138.9375,3.99625,261.875,0
112.047529697,84.20313,138.9375,3.99625,256.875,0
112.926593304,84.20313,138.9375,3.996875,255.3125,0
113.981143951,84.19141,139.03125,3.995625,257.1875,0
115.035976887,84.17969,139.03125,3.995625,271.25,0
115.914944172,84.16406,139.125,3.99375,256.25,0
116.969781399,84.15234,139.125,3.994375,258.125,0
118.024765491,84.14063,139.03125,3.99375,254.0625,0
119.079523087,84.14063,139.03125,3.995625,256.25,0
119.958544254,84.12891,139.125,3.99625,260.3125,0
121.013189793,84.11719,139.125,3.99625,264.375,0
122.068289280,84.10547,139.03125,3.99375,273.75,0
122.947458744,84.09375,139.40625,3.994375,265.9375,0
124.001926422,84.08203,139.125,3.995,273.125,0
125.056653023,84.08203,139.125,3.993125,265,0
125.935636520,84.06641,139.3125,3.99375,254.375,0
126.990423679,84.05469,139.3125,3.995,255.9375,0
128.045127869,84.04297,139.125,3.995,245.625,0
128.924088001,84.03125,139.03125,3.991875,259.6875,0
129.979000092,84.01953,139.03125,3.993125,254.375,0
131.033816338,84.01953,139.03125,3.994375,253.4375,0
131.912737370,84.00781,138.9375,3.993125,263.75,0
132.967587948,83.99609,138.84375,3.99375,254.375,0
134.022358894,83.98438,138.75,3.99375,275,0
135.077024460,83.96875,138.9375,3.993125,257.5,0
135.956002712,83.96875,139.21875,3.9925,270.3125,0
137.011122227,83.95703,139.21875,3.993125,269.0625,0
138.065742970,83.94531,139.03125,3.99125,264.0625,0
138.944718838,83.93359,139.21875,3.99375,259.0625,0
139.999508381,83.92188,139.03125,3.99375,255.3125,0
141.054486275,83.91016,139.03125,3.991875,265,0
141.933456898,83.91016,139.125,3.99375,259.375,0
142.988173962,83.89844,139.03125,3.9925,271.5625,0
144.042895794,83.88672,139.125,3.991875,261.25,0
144.922039509,83.87109,139.03125,3.99375,243.75,0
145.976809025,83.85938,139.21875,3.991875,247.1875,0
147.031594276,83.84766,139.03125,3.991875,254.375,0
147.910595894,83.84766,138.9375,3.9925,265,0
148.965327263,83.83594,138.46875,3.9925,252.1875,0
150.020059586,83.82422,138.375,3.99,275.9375,0
151.074782372,83.8125,138.65625,3.9925,253.4375,0
151.954127312,83.80078,138.5625,3.985625,262.1875,0
153.008697033,83.78906,138.46875,3.990625,272.5,0
154.063433170,83.78906,138.84375,3.991875,260,0
154.942620754,83.77344,138.5625,3.991875,266.875,0
155.997395515,83.76172,138.65625,3.990625,264.375,0
157.052027702,83.75,138.84375,3.9925,260.9375,0
157.931052685,83.73828,138.5625,3.990625,271.25,0
158.985759735,83.72656,138.46875,3.990625,269.6875,0
160.040752888,83.72656,138.65625,3.991875,265.3125,0
160.919543266,83.71484,138.75,3.99375,251.5625,0
161.974416733,83.70313,138.75,3.993125,260,0
163.029219627,83.69141,138.46875,3.98875,256.25,0
163.908316612,83.67578,138.46875,3.99125,248.75,0
164.962934971,83.66406,138.65625,3.99125,247.5,0
166.018140316,83.66406,138.28125,3.99,269.375,0
167.072585583,83.65234,138.28125,3.993125,260.3125,0
167.951663494,83.64063,138.28125,3.99,252.5,0
169.006378174,83.62891,138.1875,3.99,268.75,0
170.061305523,83.61719,138.1875,3.99,263.125,0
170.940170288,83.60547,138.1875,3.989375,272.8125,0
171.995045662,83.60547,138.1875,3.98875,256.875,0
