Time (s),W,X,Y,Z
0.015036583,0.8185987,-0.1971387,-0.1167004,-0.5234896
0.050333500,0.8188746,-0.1972478,-0.1166933,-0.5230182
0.083110333,0.8191984,-0.1972246,-0.1165421,-0.5225533
0.115885735,0.8194237,-0.1971278,-0.1163843,-0.5222717
0.148662567,0.819614,-0.1970505,-0.1163291,-0.5220145
0.181438923,0.8197502,-0.1970882,-0.1163544,-0.5217809
0.216735840,0.8199255,-0.197125,-0.116292,-0.5215054
0.249512195,0.8201594,-0.1972899,-0.1162083,-0.5210935
0.282288074,0.8204565,-0.1972302,-0.116023,-0.5206897
0.315064430,0.820723,-0.1972358,-0.1158617,-0.5203033
0.350361347,0.8209276,-0.1972357,-0.1158118,-0.5199915
0.383137703,0.8210862,-0.1972005,-0.1158424,-0.5197477
0.415913582,0.8213517,-0.1972135,-0.1157476,-0.5193441
0.448689937,0.82156,-0.197187,-0.1156616,-0.5190439
0.481465816,0.8216993,-0.1971361,-0.115618,-0.5188524
0.516763687,0.8217003,-0.1972817,-0.1156812,-0.5187814
0.549539566,0.821877,-0.1974524,-0.1156446,-0.5184446
0.582315922,0.8221223,-0.1974848,-0.1155827,-0.5180568
0.615092277,0.8223631,-0.1973293,-0.115538,-0.5177438
0.650389194,0.8225562,-0.1971845,-0.1155181,-0.5174966
0.683165550,0.8227077,-0.1971884,-0.115564,-0.5172439
0.715941429,0.8228646,-0.197301,-0.1155482,-0.5169549
0.748717785,0.8229436,-0.197617,-0.1156333,-0.5166893
0.781493664,0.8230855,-0.1979005,-0.1158144,-0.5163143
0.816791534,0.8232724,-0.1981054,-0.1159628,-0.5159042
0.849566936,0.8234602,-0.198184,-0.1159976,-0.5155665
0.882343769,0.8236938,-0.1982096,-0.1159646,-0.5151908
0.915119171,0.8239315,-0.1982103,-0.1158882,-0.5148274
0.950417042,0.8241382,-0.1983282,-0.1159239,-0.5144429
0.983192921,0.8242838,-0.198548,-0.1160002,-0.5141075
1.015969276,0.8244371,-0.1987661,-0.1160573,-0.5137644
1.048745632,0.8245567,-0.1987386,-0.1160861,-0.5135765
1.081521511,0.8247194,-0.1986692,-0.116021,-0.5133569
1.116819382,0.8249989,-0.1987175,-0.1159624,-0.512902
1.149594784,0.8252196,-0.1988192,-0.1159799,-0.5125036
1.182371139,0.8253614,-0.198987,-0.1159681,-0.5122128
1.215147018,0.8254274,-0.1990956,-0.1159379,-0.5120709
1.250444889,0.8254977,-0.1991398,-0.1159247,-0.5119436
1.283221245,0.8256044,-0.1993142,-0.1158476,-0.5117208
1.315997124,0.8257427,-0.1995145,-0.1157235,-0.511448
1.348773002,0.825876,-0.1997038,-0.115546,-0.5111987
1.381549358,0.8259393,-0.1998528,-0.1154582,-0.511058
1.416846275,0.8260058,-0.1999147,-0.1154043,-0.5109385
1.449622631,0.8261418,-0.1999304,-0.1153287,-0.5107294
1.482398987,0.8261583,-0.1997859,-0.115203,-0.5107877
1.515174866,0.8261162,-0.1997079,-0.1151579,-0.5108965
1.547951221,0.8260899,-0.1997309,-0.11516,-0.5109295
1.583248138,0.8260516,-0.2000361,-0.1152238,-0.5108576
1.616024971,0.8261291,-0.2001115,-0.115251,-0.5106966
1.648800373,0.8263516,-0.2001374,-0.1151074,-0.5103589
1.681577206,0.8264913,-0.2000172,-0.1149839,-0.5102074
1.716874123,0.8265723,-0.1999259,-0.1149661,-0.5101159
1.749650478,0.8265957,-0.1999755,-0.114978,-0.5100561
1.782426357,0.8265988,-0.1999523,-0.1150108,-0.5100526
1.815202713,0.8266556,-0.19989,-0.114914,-0.5100069
1.847979069,0.8267626,-0.1999601,-0.1147761,-0.5098372
1.883275986,0.8266814,-0.2005343,-0.1147496,-0.5097492
1.916052341,0.8266224,-0.2018351,-0.1147605,-0.5093287
1.948828220,0.8266803,-0.202477,-0.1147005,-0.5089933
1.981604576,0.8267553,-0.2026788,-0.1145671,-0.5088212
2.016901970,0.8268488,-0.202365,-0.1144218,-0.5088268
2.049678326,0.8269053,-0.2020615,-0.1143081,-0.5088814
2.082454205,0.827,-0.2017847,-0.1142085,-0.5088595
2.115230560,0.8269452,-0.2024981,-0.1142749,-0.5086503
2.148005962,0.827029,-0.2031998,-0.1143446,-0.5082182
2.183303833,0.8271866,-0.2034857,-0.114338,-0.5078489
2.216079712,0.8273617,-0.2034101,-0.1141864,-0.5076279
2.248856067,0.8274773,-0.2032006,-0.1140464,-0.5075549
2.281632423,0.8276304,-0.2029047,-0.1139776,-0.5074393
2.316929817,0.8276752,-0.2033132,-0.114083,-0.5071789
2.349706173,0.82754,-0.2049814,-0.1144354,-0.5066482
2.382481575,0.8274367,-0.2082283,-0.1150837,-0.5053443
2.415258407,0.8273978,-0.2107304,-0.1155241,-0.5042694
2.448033810,0.8275562,-0.2123796,-0.1156739,-0.5032822
2.483331680,0.8277922,-0.2128006,-0.1155509,-0.5027441
2.516107559,0.8280036,-0.2122199,-0.1153492,-0.5026879
2.548883915,0.8281738,-0.2110485,-0.1151418,-0.502948
2.581660271,0.8282839,-0.2096902,-0.1150125,-0.5033642
2.616957188,0.8283978,-0.2085721,-0.1150469,-0.5036336
2.649734020,0.8285505,-0.2079023,-0.1151072,-0.5036454
2.682509422,0.8287192,-0.207233,-0.1151305,-0.5036386
2.715285778,0.8289074,-0.2065683,-0.1150732,-0.5036148
2.748061657,0.8290356,-0.2060916,-0.1150157,-0.5036125
2.783359528,0.8290625,-0.2056739,-0.1150692,-0.5037266
2.816135406,0.8291625,-0.2055166,-0.1150988,-0.5036195
2.848911762,0.829267,-0.2054703,-0.1151394,-0.503457
2.881687641,0.829384,-0.2053342,-0.1151162,-0.5033251
2.916985035,0.8294342,-0.205212,-0.1151514,-0.503284
2.949760914,0.8295307,-0.2050146,-0.11515,-0.5032058
2.982537270,0.8296402,-0.2049502,-0.1151078,-0.5030613
3.015313625,0.8296264,-0.204889,-0.1150677,-0.5031179
3.048089504,0.8295336,-0.2047851,-0.1151182,-0.5033015
3.083387375,0.8294019,-0.2046199,-0.1152674,-0.5035517
3.116162777,0.8294656,-0.204557,-0.1152541,-0.5034755
3.148939609,0.8295193,-0.2044436,-0.1152882,-0.5034249
3.181715011,0.8295791,-0.2042616,-0.1152281,-0.5034143
3.217012882,0.8295937,-0.2041294,-0.1151117,-0.5034705
3.249788761,0.8296337,-0.2040328,-0.1150669,-0.503454
3.282565117,0.8296877,-0.2040703,-0.115063,-0.5033508
3.315340996,0.8296158,-0.2041421,-0.1150494,-0.5034432
3.348117351,0.8296076,-0.2042147,-0.114996,-0.5034394
3.383414268,0.8296284,-0.2041581,-0.1148227,-0.5034676
3.416190624,0.8296985,-0.2040303,-0.114632,-0.5034475
3.448966980,0.8298608,-0.2039993,-0.1144492,-0.5032341
3.481742859,0.8300365,-0.2041298,-0.1143157,-0.5029214
3.517040729,0.8300167,-0.2041105,-0.1142629,-0.5029742
3.549816608,0.8300777,-0.2039382,-0.1141599,-0.5029667
3.582592964,0.8301725,-0.203703,-0.1140849,-0.5029224
3.615368843,0.8303128,-0.2036467,-0.1140082,-0.5027311
3.648145199,0.8302997,-0.203695,-0.1140178,-0.5027308
3.683442116,0.8302856,-0.2036922,-0.1139923,-0.5027612
3.716218471,0.8302933,-0.2036653,-0.1139041,-0.5027795
3.748994350,0.8303615,-0.2037124,-0.1137993,-0.5026713
3.781770706,0.8304313,-0.2036442,-0.1136461,-0.5026183
3.817068577,0.8304037,-0.2036667,-0.113651,-0.5026537
3.849844456,0.8303385,-0.2036987,-0.113727,-0.5027311
3.882620811,0.8303326,-0.2037183,-0.1138033,-0.5027157
3.915396214,0.8304373,-0.2036952,-0.1137682,-0.50256
3.948173046,0.8304031,-0.2035659,-0.1137437,-0.5026746
3.983469963,0.8303599,-0.2034021,-0.1137072,-0.5028205
4.016246319,0.8302941,-0.2034009,-0.1137539,-0.5029188
4.049022198,0.8303184,-0.2035352,-0.1137366,-0.5028285
4.081798553,0.8303598,-0.2035734,-0.113681,-0.5027574
4.117095470,0.8304186,-0.2034145,-0.1136357,-0.5027348
4.149871826,0.830491,-0.2032619,-0.113566,-0.5026925
4.182648659,0.8305136,-0.2031534,-0.1135744,-0.5026973
4.215424061,0.8305356,-0.2031509,-0.1136298,-0.5026494
4.248200416,0.8306343,-0.2031031,-0.1136853,-0.5024931
4.283497810,0.8307345,-0.2030357,-0.1136447,-0.5023637
4.316274166,0.8308182,-0.2029396,-0.1136327,-0.5022667
4.349050522,0.830831,-0.2028758,-0.1136913,-0.5022583
4.381826401,0.8307884,-0.2028757,-0.1137647,-0.502312
4.414601803,0.8307359,-0.2028109,-0.1138339,-0.5024094
4.449899673,0.8307912,-0.2027672,-0.113878,-0.5023257
4.482675552,0.8309663,-0.2027047,-0.1138449,-0.5020685
4.515451908,0.8311394,-0.2027961,-0.1138173,-0.5017513
4.548228264,0.8311363,-0.2028204,-0.113844,-0.5017405
4.583525658,0.8309941,-0.2027719,-0.1139463,-0.5019724
4.616302013,0.830934,-0.2027907,-0.1140989,-0.5020297
4.649077415,0.8310329,-0.2027366,-0.1141498,-0.5018762
4.681854248,0.8311383,-0.2027221,-0.1141797,-0.5017008
4.714629650,0.8311898,-0.2027162,-0.1142243,-0.5016076
4.749927521,0.8310549,-0.2026962,-0.1143009,-0.5018216
4.782703400,0.8310061,-0.2027037,-0.1143657,-0.5018849
4.815479755,0.8309826,-0.2027182,-0.1144513,-0.5018981
4.848256111,0.830981,-0.2028023,-0.1144914,-0.5018579
4.883553028,0.8310949,-0.2028835,-0.1145754,-0.5016173
4.916329861,0.83119,-0.2028187,-0.1146016,-0.5014799
4.949105263,0.8312553,-0.2028693,-0.1145635,-0.5013596
4.981881618,0.8313706,-0.2029361,-0.1144603,-0.5011652
5.014657497,0.8314068,-0.202978,-0.1144043,-0.5011008
5.049955368,0.8313192,-0.2030801,-0.1144255,-0.5011998
5.082731247,0.8313349,-0.2031138,-0.1144112,-0.5011636
5.115507603,0.8313425,-0.2032329,-0.1144229,-0.5011
5.148283481,0.8313391,-0.2033962,-0.1144445,-0.5010344
5.183580875,0.8312622,-0.2035032,-0.1143994,-0.5011288
5.216356754,0.8311743,-0.2036533,-0.1142797,-0.501241
5.249133110,0.8310775,-0.2038132,-0.1141926,-0.5013562
5.281909466,0.8310966,-0.2037033,-0.1141364,-0.501382
5.314685345,0.8310819,-0.2036368,-0.1141903,-0.5014211
5.349983215,0.8310951,-0.2036363,-0.1143346,-0.5013667
5.382758617,0.830996,-0.2036838,-0.1144668,-0.5014812
5.415535450,0.8310493,-0.2038027,-0.1144979,-0.5013378
5.448310852,0.8311626,-0.2037835,-0.1142998,-0.5012029
5.483608723,0.8311449,-0.2036413,-0.1142044,-0.5013117
5.516384601,0.8310755,-0.2035341,-0.1142823,-0.5014525
5.549160957,0.8310204,-0.203712,-0.1142964,-0.5014684
5.581937313,0.8309368,-0.2039741,-0.1142542,-0.5015101
5.614713192,0.8309712,-0.2041157,-0.1141666,-0.5014154
5.650011063,0.8310431,-0.2039398,-0.1140949,-0.501384
5.682786465,0.8311224,-0.2037363,-0.1140059,-0.5013556
5.715562820,0.8312341,-0.2036742,-0.1139563,-0.5012069
5.748338699,0.8313347,-0.203648,-0.1138983,-0.5010639
5.783636570,0.8313572,-0.203705,-0.1138649,-0.5010109
5.816412449,0.8313875,-0.2037081,-0.1137745,-0.5009798
5.849188805,0.8314301,-0.2036202,-0.1137002,-0.5009619
5.881965160,0.8314596,-0.2035214,-0.1136138,-0.5009727
5.914741039,0.8314157,-0.2034237,-0.1135729,-0.5010944
5.950038433,0.8313916,-0.2034991,-0.1135661,-0.5011054
5.982814312,0.8314285,-0.2034935,-0.1135244,-0.501056
6.015590668,0.8315071,-0.2034957,-0.1134817,-0.5009342
6.048366547,0.8315702,-0.2033681,-0.1133753,-0.5009053
6.083664417,0.8315478,-0.203213,-0.1132725,-0.5010286
6.116440296,0.8313748,-0.2033342,-0.1133805,-0.5012421
6.149216652,0.8313525,-0.2034575,-0.1134558,-0.5012122
6.181993007,0.8314706,-0.2035014,-0.1134378,-0.5010023
6.214768886,0.8314838,-0.2033381,-0.1133786,-0.50106
6.250065803,0.8315613,-0.2031502,-0.1132985,-0.501026
6.282842159,0.8316402,-0.2030738,-0.1133257,-0.5009196
6.315618515,0.8316306,-0.2031198,-0.113406,-0.500899
6.348394394,0.8316511,-0.2031656,-0.1134154,-0.5008443
6.383692264,0.8317075,-0.2031394,-0.1133849,-0.500768
6.416467666,0.8317392,-0.2029831,-0.1134013,-0.5007749
6.449244499,0.8317465,-0.2029901,-0.1134576,-0.5007474
6.482019901,0.8317277,-0.2029363,-0.113569,-0.5007752
6.514796257,0.831708,-0.2028242,-0.113663,-0.5008318
6.550093651,0.8316664,-0.2026833,-0.1137315,-0.5009423
6.582870006,0.8316498,-0.2025579,-0.1137625,-0.5010136
6.615646362,0.8317435,-0.2025571,-0.1137899,-0.5008522
6.648422241,0.8318358,-0.2025305,-0.113804,-0.5007066
6.683719635,0.8318459,-0.2024934,-0.1138342,-0.5006979
6.716495514,0.8317232,-0.2024159,-0.1139927,-0.5008969
6.749271870,0.8316746,-0.2023139,-0.1140487,-0.5010061
6.782047749,0.8316509,-0.2023735,-0.1141247,-0.5010039
6.814824104,0.8316664,-0.2023973,-0.1141677,-0.5009588
6.850121498,0.8316092,-0.2023743,-0.1142227,-0.5010507
6.882897854,0.8315728,-0.2024281,-0.1143799,-0.5010533
6.915674210,0.831586,-0.2024278,-0.1144326,-0.5010196
6.948450088,0.8314993,-0.2024662,-0.1145447,-0.5011224
6.983747482,0.8315026,-0.2025355,-0.1145973,-0.5010768
7.016523361,0.8315463,-0.2025811,-0.1145582,-0.5009948
7.049299717,0.8315321,-0.2025487,-0.114585,-0.5010256
7.082075596,0.8314676,-0.2025681,-0.114683,-0.5011022
7.114851952,0.8313845,-0.2026973,-0.1147371,-0.5011753
7.150148868,0.8313926,-0.202851,-0.114729,-0.5011015
7.182925701,0.831442,-0.2028588,-0.1146417,-0.5010363
7.215702057,0.8315234,-0.2029574,-0.1145172,-0.50089
7.248477459,0.8315036,-0.2030699,-0.1144877,-0.5008838
7.281254291,0.8315071,-0.203109,-0.1143604,-0.5008912
7.316551208,0.8315135,-0.2031158,-0.1142178,-0.5009104
7.349327564,0.8314902,-0.2031676,-0.1141227,-0.5009496
7.382103443,0.8314899,-0.2032379,-0.1140692,-0.500934
7.414879799,0.8315163,-0.2033627,-0.114056,-0.5008423
7.450176716,0.8315339,-0.2033785,-0.1140672,-0.5008041
7.482953071,0.8314691,-0.2033195,-0.1140884,-0.5009309
7.515728950,0.8313344,-0.2041044,-0.1142625,-0.5007957
7.548505306,0.8314161,-0.2055259,-0.1144316,-0.5000397
7.581281662,0.8314525,-0.2059813,-0.1144492,-0.4997874
7.616579056,0.8314791,-0.2060738,-0.1144298,-0.4997097
7.649355411,0.8315376,-0.2060599,-0.1144684,-0.4996091
7.682131290,0.831561,-0.2059506,-0.1144463,-0.4996203
7.714907646,0.8315664,-0.2057607,-0.1144449,-0.4996897
7.750204563,0.8316097,-0.2055524,-0.1143644,-0.4997221
7.782980919,0.8316901,-0.2052634,-0.1142449,-0.4997342
7.815756798,0.8317127,-0.20496,-0.1142488,-0.4998204
7.848533153,0.8316842,-0.205067,-0.1143,-0.499812
7.881309509,0.831401,-0.2063607,-0.1145929,-0.4996838
7.916606903,0.8309732,-0.2082048,-0.115399,-0.4994446
7.949383259,0.8295114,-0.2122232,-0.1156344,-0.5001286
7.982159138,0.8225105,-0.22864,-0.1192582,-0.5035926
8.014935493,0.8114058,-0.2494253,-0.1156016,-0.5125148
8.050232410,0.7933143,-0.2741353,-0.09583656,-0.5319259
8.083008766,0.7589386,-0.3251513,-0.07109645,-0.5566523
8.115784645,0.7197437,-0.3650727,-0.02826138,-0.5869581
8.148561001,0.682974,-0.3791364,0.03757202,-0.6204982
8.181337356,0.6358569,-0.3921037,0.1053369,-0.6538137
8.216634273,0.5795076,-0.4003131,0.175636,-0.6853465
8.249411106,0.5241719,-0.4026303,0.2435368,-0.7074249
8.282186508,0.4666361,-0.4051483,0.3061952,-0.7217878
8.314963341,0.4142863,-0.4048241,0.369058,-0.7245055
8.350260258,0.367643,-0.4013615,0.4286737,-0.7187587
8.383036613,0.3330943,-0.3962944,0.4816736,-0.7047107
8.415812969,0.2978288,-0.3986015,0.5182801,-0.6931292
8.448588848,0.2650585,-0.4035254,0.5394386,-0.687419
8.481365204,0.2384824,-0.4099376,0.5534568,-0.6821953
8.516662121,0.2215541,-0.4136584,0.5729931,-0.669408
8.549438476,0.2049471,-0.4177428,0.5811701,-0.665099
8.582214355,0.1917886,-0.4184833,0.5839624,-0.6661115
8.614990711,0.1840933,-0.4153244,0.586785,-0.6677772
8.650288105,0.1795421,-0.40925,0.587202,-0.6723842
8.683064461,0.1772662,-0.3997963,0.5851379,-0.680427
8.715840816,0.1729347,-0.386091,0.5769895,-0.6962312
8.748616695,0.1704738,-0.3610089,0.5620217,-0.7220598
8.781393051,0.1880275,-0.3067986,0.5437956,-0.7559326
8.816689968,0.2150538,-0.2188086,0.5047284,-0.8048301
8.849466324,0.2092821,-0.1875712,0.4471918,-0.8471513
8.882242203,0.2230118,-0.1777185,0.5098562,-0.8095407
8.915018558,0.2179905,-0.1834521,0.4867166,-0.8237475
8.950315952,0.2270285,-0.1708119,0.492753,-0.8204288
8.983092308,0.2336889,-0.1668413,0.4993223,-0.8153886
9.015868664,0.2346857,-0.1700451,0.4937424,-0.8178346
9.048644543,0.2352026,-0.1722142,0.4848306,-0.8225503
9.081420898,0.2414218,-0.1696342,0.4873108,-0.8198143
9.116717815,0.2487051,-0.168166,0.4853858,-0.8190814
9.149494171,0.2543693,-0.170361,0.4801927,-0.8199489
9.182270050,0.2622073,-0.1697489,0.4801137,-0.8176498
9.215046406,0.2713736,-0.1674372,0.4762431,-0.8173991
9.250344276,0.2888975,-0.1656001,0.4644614,-0.8185464
9.283120155,0.3188745,-0.1599054,0.4600758,-0.8109914
9.315896511,0.362064,-0.1669465,0.4472099,-0.7985421
9.348671913,0.4234355,-0.1775876,0.42951,-0.7754442
9.381448746,0.4992557,-0.181823,0.4029799,-0.7429125
9.416745663,0.5859159,-0.1897862,0.3404799,-0.7080852
9.449522018,0.65548,-0.2069515,0.2521047,-0.6786661
9.482298374,0.7084267,-0.2238825,0.1698722,-0.6448095
9.515074253,0.7485487,-0.2459803,0.1025416,-0.6043851
9.550372124,0.7655596,-0.2880227,0.02136202,-0.5719552
9.583147526,0.7863987,-0.284777,-0.01492798,-0.5448703
9.615924358,0.8106312,-0.2435831,-0.02532846,-0.5287064
9.648699760,0.8246212,-0.2158745,-0.04082363,-0.5180338
9.681476116,0.8291705,-0.2129335,-0.06711044,-0.5091752
9.716773510,0.8290884,-0.2178228,-0.09385869,-0.5029749
9.782326221,0.832531,-0.218038,-0.1147853,-0.492751
9.815102100,0.8275012,-0.2314083,-0.1265338,-0.4922489
9.850399494,0.82482,-0.2410902,-0.1315995,-0.4907716
9.883175373,0.8266312,-0.2287685,-0.1289134,-0.4943227
9.915951729,0.8271458,-0.2166624,-0.1278228,-0.4991755
9.948727608,0.826451,-0.2127447,-0.1266316,-0.5023053
9.981503963,0.8241915,-0.2157875,-0.1259125,-0.5048938
10.016801834,0.8219491,-0.2132414,-0.1235521,-0.5101866
10.049577713,0.8173589,-0.2103564,-0.1234764,-0.518706
10.082354069,0.8127562,-0.2035795,-0.1209674,-0.5291288
10.115129948,0.8094552,-0.198689,-0.1151895,-0.5372746
10.150427341,0.802679,-0.2183315,-0.1160779,-0.5396214
10.183203220,0.7963948,-0.2400872,-0.1198288,-0.5388713
10.215979576,0.7919021,-0.2491601,-0.1215705,-0.5409793
10.248755932,0.7870913,-0.2588555,-0.1217528,-0.5434015
10.281531811,0.7818662,-0.2756937,-0.1253331,-0.5418464
10.316829681,0.7792928,-0.2863498,-0.1310135,-0.538674
10.349605560,0.7795596,-0.2875346,-0.1323452,-0.5373297
10.382381916,0.7805614,-0.2866996,-0.1321409,-0.5363708
10.415157318,0.7821814,-0.2842619,-0.1323401,-0.5352582
10.447934151,0.7841114,-0.2815601,-0.131677,-0.5340245
10.483231068,0.7859234,-0.2794962,-0.1307348,-0.532675
10.516007423,0.7868081,-0.2790227,-0.1307763,-0.5316055
10.548783779,0.7877455,-0.2795923,-0.1307549,-0.5299208
10.581559658,0.7897236,-0.2782805,-0.1303291,-0.5277678
10.616857529,0.7922222,-0.2759358,-0.1296015,-0.5254281
10.649632931,0.7941948,-0.2744646,-0.1284666,-0.5234959
10.682409763,0.7949029,-0.2758395,-0.1286034,-0.5216618
10.715186119,0.79502,-0.2772728,-0.1301291,-0.5203432
10.747961521,0.7951146,-0.2761707,-0.1303676,-0.5207251
10.783259392,0.7941091,-0.2763661,-0.1311315,-0.5219624
10.816035271,0.792239,-0.2828205,-0.1326246,-0.5209687
10.848811626,0.7903053,-0.292716,-0.1350527,-0.5178062
10.881587505,0.7881565,-0.3043992,-0.1385172,-0.5134113
10.916885376,0.7847387,-0.3203339,-0.1427831,-0.507752
10.949660778,0.7813218,-0.33485,-0.1439469,-0.5033078
11.015213966,0.7725279,-0.3645373,-0.1494869,-0.4945651
11.047989368,0.7696014,-0.3740721,-0.1508097,-0.4915973
11.083287239,0.7687234,-0.3771636,-0.1513079,-0.4904543
11.116063118,0.7669891,-0.3812887,-0.1532042,-0.4893905
11.148839474,0.7658713,-0.3843903,-0.1546485,-0.4882588
11.181615352,0.7659162,-0.3850755,-0.1567981,-0.4869612
11.216912746,0.7660381,-0.3854695,-0.1601964,-0.4853492
11.249689102,0.7664958,-0.3858338,-0.1612571,-0.4839841
11.282464981,0.76627,-0.3886419,-0.1629777,-0.481512
11.315241337,0.7662036,-0.394867,-0.1631393,-0.4764718
11.348017216,0.7663355,-0.4030434,-0.1607686,-0.4701776
11.383315086,0.7654024,-0.4197276,-0.1519536,-0.4599192
11.416090965,0.7566134,-0.4547635,-0.1441723,-0.4433603
11.448867321,0.7332543,-0.5119768,-0.1396187,-0.4211317
11.481643677,0.7112021,-0.5567502,-0.1368565,-0.40264
11.516940594,0.7006246,-0.5812236,-0.1319687,-0.3879643
11.549716949,0.7046753,-0.5841582,-0.1209765,-0.3797161
11.582492828,0.716064,-0.5722769,-0.1098075,-0.3798966
11.615269184,0.7272038,-0.558526,-0.1018952,-0.3814031
11.648045063,0.7352375,-0.5496461,-0.09295324,-0.3811857
11.683342934,0.7431398,-0.541811,-0.08735413,-0.3783925
11.716119289,0.7497476,-0.534619,-0.08472038,-0.3761797
11.748895168,0.752029,-0.5338622,-0.08305784,-0.3730586
11.781671524,0.7548418,-0.5311303,-0.08408616,-0.3710414
11.816968441,0.7516248,-0.5375217,-0.08260211,-0.3686936
11.849744797,0.7470115,-0.5433103,-0.08574774,-0.3688669
11.882520676,0.7427233,-0.5464407,-0.1008069,-0.3690939
11.915297031,0.7354487,-0.5598285,-0.1113442,-0.3604683
11.948073387,0.7244867,-0.5784307,-0.1247742,-0.3487061
11.983370781,0.7148165,-0.5925539,-0.14177,-0.3382991
12.016147137,0.7088667,-0.6012635,-0.1530412,-0.3304486
12.048922539,0.7085397,-0.6014256,-0.1653655,-0.3248702
12.081699371,0.7161492,-0.5910636,-0.1769345,-0.3210858
12.116996288,0.729566,-0.5714493,-0.1861768,-0.321162
12.149772644,0.7463456,-0.5450493,-0.1895206,-0.3264952
12.182549000,0.7674246,-0.5075696,-0.1908019,-0.3371273
12.215324879,0.7904865,-0.4642153,-0.1858707,-0.3488769
