Time (s),Percentage (%),Time To Empty (minutes),Voltage (V),Current (mA),Is Charger Connected (Boolean)
0.787884712,67.95313,111.46875,3.8825,278.75,0
1.842602730,67.94141,111.1875,3.883125,271.25,0
2.897296429,67.92969,110.90625,3.88125,254.375,0
3.952508450,67.91797,111,3.88125,262.8125,0
4.831140518,67.91797,110.90625,3.885625,261.875,0
5.886017323,67.90625,111.09375,3.88375,258.4375,0
6.940794945,67.89453,110.90625,3.880625,265.9375,0
7.819918156,67.88281,111.09375,3.884375,258.125,0
8.874772549,67.87109,111.375,3.88375,253.4375,0
9.929267883,67.87109,111.375,3.88,258.75,0
10.808398724,67.85547,111.375,3.88375,274.375,0
11.863150597,67.84375,111.46875,3.885,255,0
12.917859077,67.83203,111.5625,3.8825,275.9375,0
13.796854973,67.82031,111.375,3.881875,273.125,0
14.851634979,67.80859,111,3.880625,304.6875,0
15.906624794,67.80859,110.8125,3.883125,276.875,0
16.785471916,67.79688,110.90625,3.884375,241.5625,0
17.840246201,67.78516,110.8125,3.88125,272.1875,0
18.895227909,67.77344,110.8125,3.88125,257.8125,0
19.949980259,67.75781,110.8125,3.881875,256.875,0
20.829016685,67.74609,110.8125,3.88125,265.3125,0
21.883826256,67.74609,111.1875,3.88,264.0625,0
22.938779354,67.73438,111.375,3.88125,252.5,0
23.817520142,67.72266,111.1875,3.88375,273.125,0
24.872363090,67.71094,111,3.881875,269.6875,0
25.927176476,67.69922,111.09375,3.8825,257.1875,0
26.806009293,67.69922,110.71875,3.88125,289.375,0
27.860805511,67.6875,110.625,3.879375,288.125,0
28.915644169,67.67578,110.90625,3.881875,251.25,0
29.794762611,67.66016,110.90625,3.879375,252.5,0
30.849507332,67.64844,110.71875,3.880625,270.625,0
31.904321194,67.63672,110.625,3.88,271.875,0
32.959277630,67.625,110.625,3.880625,273.75,0
33.837968826,67.625,110.34375,3.881875,261.5625,0
34.892878532,67.61328,110.625,3.879375,250.625,0
35.947646618,67.60156,110.53125,3.87875,265.9375,0
36.826774120,67.58984,110.53125,3.88125,269.375,0
37.881693840,67.57813,110.34375,3.88,270.9375,0
38.936163425,67.5625,110.25,3.880625,255,0
39.815267563,67.5625,110.0625,3.879375,282.1875,0
40.869976997,67.55078,110.0625,3.88125,258.4375,0
41.924792767,67.53906,110.15625,3.88125,264.6875,0
42.803753853,67.52734,110.0625,3.88,276.875,0
43.858520985,67.52734,110.15625,3.88,268.75,0
44.913507462,67.51563,110.25,3.88125,261.875,0
45.792773724,67.50391,109.78125,3.88,251.25,0
46.847126007,67.49219,110.0625,3.880625,268.4375,0
47.901967525,67.48047,109.96875,3.879375,261.875,0
48.956842899,67.46484,110.0625,3.8825,261.5625,0
49.835872173,67.46484,110.15625,3.87875,260.625,0
50.890719891,67.45313,110.25,3.881875,265.9375,0
51.945443153,67.44141,110.4375,3.87625,271.875,0
52.824324608,67.42969,110.25,3.88,258.75,0
53.879289627,67.41797,110.25,3.879375,264.375,0
55.813119411,67.40625,110.25,3.879375,260,0
56.867701054,67.39453,110.625,3.880625,259.0625,0
57.922477722,67.38281,110.625,3.88125,254.0625,0
58.801613808,67.36719,110.53125,3.87875,260.9375,0
59.856402874,67.35547,110.4375,3.879375,280.9375,0
60.911436081,67.34375,110.53125,3.88125,270,0
61.790089130,67.34375,110.34375,3.879375,270.3125,0
62.844853878,67.33203,110.0625,3.875625,265.9375,0
63.899819374,67.32031,110.0625,3.87875,265,0
64.954436302,67.30859,110.15625,3.879375,262.5,0
65.833665371,67.29688,110.34375,3.873125,256.25,0
66.888446331,67.28516,109.96875,3.8775,254.375,0
67.943210602,67.28516,110.0625,3.8775,261.875,0
68.822238445,67.26953,110.25,3.8775,270.625,0
69.877428532,67.25781,110.0625,3.8775,259.375,0
70.931685448,67.24609,110.25,3.87875,255.625,0
71.810645580,67.23438,109.96875,3.873125,290.9375,0
72.865578651,67.23438,109.78125,3.879375,269.375,0
73.920419216,67.22266,109.59375,3.8775,260,0
74.799250126,67.21094,109.59375,3.8775,302.5,0
75.854427338,67.19922,109.59375,3.8775,259.375,0
76.908882141,67.1875,109.78125,3.8775,255,0
77.787979603,67.17188,109.40625,3.879375,315.625,0
78.842743397,67.17188,109.59375,3.8775,276.875,0
79.897607803,67.16016,109.5,3.878125,262.8125,0
80.952569485,67.14844,109.59375,3.8775,263.125,0
81.831192017,67.13672,109.875,3.87875,246.25,0
82.886110306,67.125,109.96875,3.879375,259.375,0
83.940896988,67.11328,109.96875,3.8775,261.5625,0
84.820462704,67.11328,109.96875,3.8775,266.25,0
85.874594688,67.10156,109.6875,3.878125,264.6875,0
86.929368019,67.08984,109.6875,3.878125,251.5625,0
87.808558464,67.07422,109.59375,3.875,279.375,0
88.863190651,67.0625,109.3125,3.8775,258.4375,0
89.918583393,67.05078,109.3125,3.879375,266.5625,0
90.796984672,67.05078,109.5,3.8775,253.4375,0
91.851746082,67.03906,109.6875,3.875625,269.375,0
92.906694412,67.02734,109.5,3.876875,262.8125,0
93.785553932,67.01563,109.5,3.87875,272.8125,0
94.840449810,67.00391,109.40625,3.876875,270.625,0
95.895229340,67.00391,109.5,3.875,259.6875,0
96.950084209,66.99219,109.40625,3.874375,262.1875,0
97.829122066,66.97656,109.5,3.878125,257.1875,0
98.883762836,66.96484,109.78125,3.876875,270.625,0
99.938539028,66.95313,109.78125,3.8725,263.4375,0
100.817542076,66.95313,109.78125,3.87625,281.25,0
101.872561455,66.94141,109.3125,3.875625,276.25,0
102.927292347,66.92969,109.5,3.876875,264.6875,0
103.806140423,66.91797,109.5,3.8775,255.3125,0
104.861308575,66.90625,109.5,3.87375,268.4375,0
105.915720463,66.89453,109.40625,3.874375,266.5625,0
106.795018196,66.89453,109.125,3.87625,271.25,0
107.849756718,66.87891,109.03125,3.87,277.5,0
108.904551506,66.86719,109.21875,3.874375,267.5,0
109.959152222,66.85547,109.21875,3.87625,251.25,0
110.838124752,66.84375,109.125,3.875625,263.75,0
111.893014431,66.83203,109.21875,3.875625,257.5,0
112.948143959,66.82031,109.59375,3.874375,255.625,0
113.826798439,66.82031,109.21875,3.87625,283.125,0
114.881486416,66.80859,109.40625,3.87625,268.75,0
115.936415672,66.79688,109.5,3.876875,255,0
116.815449715,66.78125,109.59375,3.873125,275,0
117.870478630,66.76953,109.78125,3.875,258.125,0
118.925146103,66.76953,109.875,3.8775,262.8125,0
119.803937435,66.75781,109.875,3.8725,268.4375,0
120.858799934,66.74609,109.6875,3.874375,268.4375,0
121.913586616,66.73438,109.78125,3.876875,266.25,0
122.792456150,66.72266,109.6875,3.874375,270.3125,0
123.847497463,66.71094,109.5,3.875,273.125,0
124.902040958,66.71094,109.6875,3.875,261.875,0
125.956963539,66.69922,109.125,3.875,264.0625,0
126.836008549,66.68359,109.125,3.874375,256.25,0
127.891103268,66.67188,108.9375,3.87375,264.0625,0
128.945478916,66.66016,109.21875,3.875625,256.875,0
129.824430466,66.66016,109.03125,3.8725,273.4375,0
130.879363537,66.64844,109.03125,3.875625,263.4375,0
131.934271336,66.63672,109.03125,3.87625,254.6875,0
132.813456058,66.625,109.21875,3.87375,253.125,0
133.867996216,66.61328,109.03125,3.873125,255.3125,0
134.922734261,66.60156,108.84375,3.875,253.75,0
135.801781177,66.60156,109.125,3.871875,265.9375,0
136.856404304,66.58594,108.9375,3.873125,255.3125,0
137.911308765,66.57422,108.9375,3.871875,256.5625,0
138.790285587,66.5625,109.21875,3.873125,265.9375,0
139.845170021,66.55078,109.125,3.873125,271.875,0
140.899926186,66.55078,109.125,3.875625,256.875,0
141.955395222,66.53906,109.21875,3.870625,284.6875,0
142.834071636,66.52734,109.125,3.875625,260.9375,0
143.888366222,66.51563,109.21875,3.874375,265.625,0
144.943292618,66.50391,109.21875,3.874375,270.3125,0
145.822359085,66.48828,109.03125,3.871875,256.875,0
146.877267837,66.48828,109.03125,3.8725,267.8125,0
147.932059288,66.47656,109.125,3.873125,281.875,0
148.810743809,66.46484,108.65625,3.8725,275.3125,0
149.865700245,66.45313,109.03125,3.87375,271.25,0
150.920352936,66.44141,109.03125,3.875,252.1875,0
151.799399853,66.44141,109.21875,3.8725,255.9375,0
152.854259014,66.42969,109.21875,3.871875,265.625,0
153.909081459,66.41797,109.21875,3.873125,261.5625,0
154.788116932,66.40625,109.21875,3.870625,268.4375,0
155.843295574,66.39063,109.03125,3.869375,270.625,0
156.898043632,66.37891,109.125,3.87125,268.75,0
157.952373028,66.36719,108.84375,3.8725,268.125,0
158.831433773,66.36719,108.84375,3.871875,259.6875,0
159.886238098,66.35547,109.03125,3.871875,263.75,0
160.941323280,66.34375,109.125,3.874375,260,0
162.874740601,66.32031,108.84375,3.871875,258.4375,0
163.929617882,66.32031,108.75,3.870625,269.375,0
164.808598518,66.30859,108.75,3.8725,265.625,0
165.863297939,66.29297,108.75,3.8725,252.1875,0
166.918293476,66.28125,108.75,3.870625,262.5,0
167.797112465,66.26953,108.75,3.873125,272.8125,0
168.852011681,66.25781,109.03125,3.87125,249.0625,0
169.906726360,66.25781,108.75,3.87125,252.5,0
170.786250591,66.24609,108.75,3.87125,273.4375,0
171.840594768,66.23438,108.75,3.87125,251.5625,0
172.895384312,66.22266,108.9375,3.8725,254.0625,0
173.950191021,66.21094,108.84375,3.870625,266.5625,0
174.829211712,66.21094,108.65625,3.870625,269.375,0
175.884266853,66.19531,108.75,3.870625,265.625,0
176.938711643,66.18359,108.28125,3.87,298.125,0
177.817754269,66.17188,108,3.873125,258.4375,0
178.872613907,66.16016,108.09375,3.87,251.5625,0
179.927246571,66.14844,108,3.870625,265,0
180.806252480,66.14844,108,3.871875,271.25,0
181.861084938,66.13672,108,3.87,261.25,0
182.915971756,66.125,108,3.865,257.5,0
183.794834137,66.11328,107.90625,3.87125,253.125,0
184.849627018,66.09766,108,3.869375,254.6875,0
185.904463768,66.08594,108.09375,3.868125,259.6875,0
186.959350586,66.08594,108.09375,3.868125,263.125,0
187.838382721,66.07422,108.28125,3.87125,267.1875,0
188.893215179,66.0625,108.375,3.868125,260.3125,0
189.947980404,66.05078,108.46875,3.866875,265.625,0
190.826815128,66.03906,108.375,3.871875,256.875,0
191.881768227,66.03906,108.46875,3.870625,315.3125,0
192.936517715,66.02734,108.28125,3.87,258.75,0
193.815621376,66.01563,108.28125,3.87,257.8125,0
194.870233059,66,108.375,3.87125,283.125,0
195.924976349,65.98828,108.46875,3.87125,266.25,0
196.804125309,65.98828,108.28125,3.87125,277.5,0
197.859180927,65.97656,108.375,3.868125,268.4375,0
198.913978100,65.96484,108.375,3.87,261.25,0
199.792591095,65.95313,108.375,3.8675,277.5,0
200.847499847,65.94141,108.375,3.86875,258.125,0
201.902276516,65.92969,108.375,3.87,266.5625,0
202.957109451,65.91797,108.28125,3.86875,268.125,0
203.836074352,65.91797,108.1875,3.87,265,0
204.890773773,65.90234,108.09375,3.86875,264.6875,0
205.945689678,65.89063,108.1875,3.870625,253.4375,0
206.824661732,65.87891,108.375,3.870625,248.4375,0
207.879975796,65.86719,108.375,3.869375,259.0625,0
208.934147358,65.86719,108.46875,3.869375,253.125,0
209.813125133,65.85547,108.375,3.86625,267.8125,0
210.868052959,65.84375,108.375,3.868125,253.75,0
211.923103333,65.83203,108.375,3.866875,267.5,0
212.801753521,65.82031,108.28125,3.868125,248.75,0
213.856721878,65.80469,108.1875,3.866875,245,0
215.790410995,65.79297,108.1875,3.868125,256.875,0
216.845109940,65.78125,108.1875,3.866875,269.375,0
217.899950504,65.76953,108.09375,3.86625,250.9375,0
218.954686165,65.75781,108.1875,3.86625,266.5625,0
219.833884716,65.75781,108.1875,3.869375,269.6875,0
220.888610840,65.74609,107.90625,3.869375,264.375,0
221.943309784,65.73438,108,3.86375,262.5,0
222.822705746,65.72266,108.09375,3.86875,260.625,0
223.877106190,65.70703,108.1875,3.869375,254.6875,0
224.932062626,65.69531,108,3.863125,257.1875,0
225.811015129,65.69531,108,3.8675,266.5625,0
226.866060257,65.68359,107.8125,3.8675,270,0
228.799524784,65.66016,107.90625,3.866875,255.625,0
229.854363441,65.64844,107.71875,3.866875,257.1875,0
230.909094810,65.63672,107.71875,3.865625,269.375,0
231.788091659,65.63672,107.53125,3.868125,259.375,0
232.842936516,65.625,107.53125,3.868125,255.9375,0
233.897776127,65.60938,107.71875,3.869375,271.5625,0
234.952569962,65.59766,107.71875,3.865625,273.4375,0
235.831922054,65.58594,107.25,3.866875,265,0
236.886310101,65.58594,107.34375,3.86625,270.625,0
237.941071987,65.57422,107.53125,3.8675,268.75,0
238.820153713,65.5625,107.0625,3.866875,261.5625,0
239.874946117,65.55078,107.4375,3.865,283.4375,0
240.929649353,65.53906,107.25,3.86625,254.0625,0
241.808933735,65.53906,107.25,3.866875,263.75,0
242.863460541,65.52734,107.15625,3.865,268.75,0
243.918352604,65.51172,106.875,3.864375,272.5,0
244.797215462,65.5,106.875,3.865625,283.125,0
245.852006912,65.48828,106.875,3.86625,256.5625,0
246.906908035,65.47656,106.96875,3.866875,256.875,0
247.785974979,65.47656,107.0625,3.864375,264.6875,0
248.840730667,65.46484,107.0625,3.865625,264.0625,0
249.895473957,65.45313,107.0625,3.86625,263.75,0
250.950617313,65.44141,106.875,3.865625,253.4375,0
251.829175472,65.42969,106.96875,3.866875,262.8125,0
252.884078503,65.41406,106.875,3.865,263.75,0
253.938958645,65.40234,106.875,3.86625,257.5,0
254.817978382,65.40234,106.96875,3.866875,264.0625,0
255.872556210,65.39063,107.15625,3.86625,254.0625,0
256.927352905,65.37891,107.25,3.86625,265.3125,0
257.806483746,65.36719,107.34375,3.865,257.5,0
258.861225128,65.35547,107.34375,3.865,266.875,0
259.915988445,65.35547,107.15625,3.865,255.3125,0
260.794989109,65.34375,107.15625,3.86375,261.5625,0
261.849731922,65.33203,107.25,3.86375,268.4375,0
262.904683590,65.31641,106.875,3.865625,254.375,0
263.959776402,65.30469,106.78125,3.86375,269.0625,0
264.838410377,65.29297,106.875,3.865,268.4375,0
265.893152714,65.29297,106.96875,3.866875,252.1875,0
266.948055267,65.28125,107.0625,3.86375,265.9375,0
267.827080727,65.26953,107.15625,3.865,265.625,0
268.881920338,65.25781,107.15625,3.864375,254.6875,0
269.936722279,65.24609,107.15625,3.863125,270.625,0
270.815510750,65.24609,107.15625,3.863125,265.9375,0
271.870454788,65.23438,107.15625,3.865625,254.0625,0
272.925772667,65.21875,107.15625,3.863125,274.375,0
273.804453850,65.20703,107.0625,3.865,262.8125,0
274.858933926,65.19531,107.15625,3.864375,263.4375,0
