Time (s),W,X,Y,Z
0.024245739,-0.799884,0.1586913,0.06369026,0.5723408
0.058892250,-0.8005272,0.1587688,0.06337258,0.5714543
0.091064453,-0.8010296,0.1587016,0.06324294,0.5707834
0.125710964,-0.8014292,0.1592114,0.06348186,0.5700533
0.157883167,-0.8018655,0.1593769,0.06330417,0.5694128
0.192530155,-0.8024333,0.159579,0.06310441,0.5685779
0.224702358,-0.8029553,0.1596574,0.06287147,0.5678445
0.259348869,-0.8034474,0.159744,0.06269877,0.5671427
0.291520596,-0.8038788,0.1600577,0.06268841,0.5664434
0.326167584,-0.8044175,0.160211,0.06250167,0.5656556
0.358339787,-0.8049003,0.160267,0.0624614,0.564957
0.392986298,-0.8053634,0.1603658,0.06240522,0.5642748
0.425158501,-0.8058706,0.1604924,0.06219602,0.5635371
0.459805489,-0.8064365,0.1607091,0.0619525,0.5626919
0.491977215,-0.8068253,0.1608023,0.06182015,0.5621222
0.524148941,-0.8073371,0.1609669,0.0617422,0.5613483
0.558796406,-0.8079413,0.1611176,0.06154487,0.560457
0.590968132,-0.8083563,0.1611982,0.06136466,0.5598546
0.625614643,-0.8089126,0.1610386,0.06107046,0.5591288
0.657787323,-0.8093093,0.161378,0.06121326,0.558441
0.692433834,-0.8097008,0.1614588,0.06097238,0.5578761
0.724605560,-0.8101512,0.1613361,0.06060774,0.5572972
0.759253025,-0.8106289,0.1613729,0.06032971,0.5566216
0.791424751,-0.811051,0.1612373,0.06005924,0.5560751
0.826071262,-0.8113019,0.1614027,0.05998297,0.5556689
0.858242989,-0.8116006,0.1615779,0.05983291,0.5551978
0.892890453,-0.8119863,0.1616943,0.05972805,0.5546111
0.925062180,-0.8122455,0.1617266,0.05964923,0.5542306
0.959708691,-0.8126032,0.161753,0.05939024,0.5537259
0.991881371,-0.813049,0.1617651,0.05905835,0.5531031
1.026527882,-0.813492,0.1618341,0.0588394,0.5524548
1.058699608,-0.8138195,0.1618987,0.05874063,0.5519637
1.090872288,-0.8141295,0.1619963,0.05857841,0.5514949
1.125518799,-0.8143914,0.1620741,0.05846261,0.5510976
1.157690525,-0.8146623,0.1620605,0.0582616,0.5507221
1.192337990,-0.8149359,0.1621272,0.05828316,0.5502954
1.224509716,-0.8152224,0.1625021,0.05834046,0.5497542
1.259156227,-0.8156517,0.1623877,0.05798839,0.5491883
1.291328430,-0.816004,0.1624155,0.05785422,0.5486705
1.325975418,-0.8163349,0.1622961,0.05757448,0.5482427
1.358147144,-0.8165918,0.1624956,0.05758825,0.5477995
1.392793655,-0.8169479,0.1626802,0.05743804,0.5472292
1.424966335,-0.8172064,0.1625085,0.0571753,0.5469218
1.459612846,-0.8174354,0.1628032,0.05723656,0.5464853
1.491785049,-0.8176568,0.1631051,0.05722756,0.5460648
1.526432037,-0.817975,0.1630457,0.05693859,0.5456359
1.558603763,-0.8183072,0.1628306,0.05666398,0.5452306
1.590775967,-0.8186432,0.1627584,0.05655687,0.5447588
1.625422478,-0.8190178,0.1629056,0.05648375,0.544159
1.657594681,-0.8192791,0.1630487,0.0564184,0.5437292
1.692241192,-0.8195424,0.1631623,0.05631785,0.5433086
1.724413395,-0.8199391,0.1630342,0.05621753,0.5427588
1.759060383,-0.8202767,0.1633828,0.05628921,0.5421361
1.791232586,-0.820623,0.1632853,0.05606561,0.5416642
1.825879097,-0.8208303,0.1632354,0.05606432,0.5413652
1.858051300,-0.8210322,0.1631319,0.05595084,0.5411019
1.892697811,-0.8212299,0.1632857,0.05601542,0.5407488
1.924870014,-0.8214968,0.1636306,0.05610048,0.54023
1.959517002,-0.8217391,0.1637267,0.05610798,0.5398315
1.991689205,-0.8218245,0.163761,0.05625321,0.539676
2.026335716,-0.8217847,0.1637606,0.05636819,0.5397247
2.058507442,-0.8220278,0.163871,0.05630835,0.539327
2.093154430,-0.8222262,0.1641813,0.05645239,0.5389151
2.125326633,-0.8223741,0.1643436,0.05661381,0.5386227
2.157498360,-0.8224439,0.1644173,0.05666335,0.5384887
2.192145824,-0.8225639,0.1643957,0.05663719,0.5383146
2.224317551,-0.8227691,0.1643454,0.05644245,0.5380368
2.258964062,-0.8230448,0.164125,0.05632952,0.537694
2.291135788,-0.8231161,0.1645187,0.05666245,0.5374298
2.325783253,-0.8232419,0.1645613,0.05655315,0.5372351
2.357954979,-0.8234356,0.1646236,0.05654342,0.5369205
2.392601967,-0.8236609,0.1645874,0.05645495,0.536595
2.424774170,-0.8238008,0.1645937,0.05645305,0.5363786
2.459420681,-0.8238911,0.164851,0.05651486,0.5361542
2.491592407,-0.8240089,0.1648504,0.05652387,0.5359724
2.526239872,-0.8241333,0.1648593,0.05674986,0.5357546
2.558411598,-0.8244214,0.1647396,0.05677165,0.5353456
2.593058109,-0.8246976,0.1645503,0.05654247,0.5350025
2.625230789,-0.8249029,0.1646011,0.05631833,0.534694
2.657402515,-0.8250883,0.1644748,0.05613025,0.5344667
2.692049026,-0.8252069,0.1643594,0.05599371,0.5343332
2.724220753,-0.8253002,0.1642284,0.05581984,0.5342475
2.758868217,-0.8255193,0.1642114,0.05562433,0.5339347
2.791039944,-0.8257048,0.1640765,0.05541423,0.533711
2.825687408,-0.8258057,0.1642548,0.05548194,0.533493
2.857859135,-0.8259345,0.1641401,0.05528518,0.5333493
2.892505646,-0.8260379,0.1639193,0.05510637,0.5332755
2.924677372,-0.8261567,0.1638541,0.05496589,0.5331262
2.959324837,-0.8262862,0.1638079,0.05489251,0.5329469
2.991496563,-0.8264663,0.1639951,0.05488503,0.5326109
3.026143074,-0.8266444,0.1641692,0.05489548,0.5322797
3.058315754,-0.8267389,0.1641135,0.05480953,0.5321589
3.092962265,-0.826928,0.1642667,0.05482445,0.5318163
3.125133991,-0.8271518,0.1640871,0.05453611,0.5315534
3.159781456,-0.8273128,0.1640231,0.05442532,0.5313337
3.191953182,-0.8274091,0.1641201,0.05444218,0.5311521
3.224124908,-0.8274934,0.164291,0.05448603,0.5309633
3.258771896,-0.8276278,0.1642797,0.05438774,0.5307676
3.290944099,-0.827782,0.1642158,0.05426864,0.5305589
3.325590611,-0.8279485,0.1640209,0.05411012,0.5303755
3.357762814,-0.8280663,0.1640813,0.05416845,0.5301671
3.392409802,-0.8280862,0.1642531,0.05424268,0.5300753
3.424581528,-0.8282123,0.1640934,0.05403455,0.5299488
3.459228516,-0.8283333,0.1640918,0.05394674,0.5297692
3.491400719,-0.8283319,0.1639274,0.05386959,0.52983
3.526047230,-0.8283988,0.1641204,0.05399525,0.5296527
3.558219433,-0.8285715,0.1642393,0.0539592,0.5293496
3.592866421,-0.8287284,0.1642232,0.053927,0.529112
3.625038147,-0.8288638,0.1642191,0.05401235,0.5288925
3.659684658,-0.8290542,0.1642327,0.05395139,0.528596
3.691856861,-0.8292137,0.1642563,0.05384227,0.5283495
3.726503849,-0.8292815,0.1643875,0.05391218,0.5281951
3.758676052,-0.8292834,0.1644329,0.05403159,0.5281658
3.790847778,-0.8292724,0.164345,0.05399609,0.5282142
3.825494766,-0.8293298,0.1642487,0.0539461,0.5281589
3.857666969,-0.8294414,0.1639917,0.05381029,0.5280776
3.892313480,-0.8295485,0.1640273,0.05397157,0.5278819
3.924485683,-0.8295509,0.1644788,0.05425721,0.5277082
3.959132671,-0.8296567,0.1644582,0.05410307,0.527564
3.991304398,-0.8296779,0.1644787,0.05415726,0.5275186
4.025951386,-0.8298285,0.1643506,0.05405024,0.5273326
4.058123589,-0.8298862,0.1645893,0.0541811,0.5271541
4.092770100,-0.8299411,0.1648321,0.05420291,0.5269894
4.124942303,-0.8299881,0.1647492,0.05419425,0.5269424
4.159588814,-0.8300096,0.1646943,0.05434787,0.5269096
4.191761017,-0.8300892,0.1647682,0.05436995,0.526759
4.226408005,-0.8302373,0.1648892,0.05428118,0.5264968
4.258580208,-0.8303967,0.1649459,0.05417713,0.5262383
4.290751934,-0.8305346,0.164942,0.05419093,0.5260205
4.325398445,-0.8306433,0.1649637,0.0541971,0.5258414
4.357571125,-0.8307286,0.1649708,0.05415997,0.5257083
4.392217636,-0.8308132,0.164818,0.05395791,0.5256431
4.424389362,-0.8307522,0.1647106,0.05405895,0.5257629
4.459036827,-0.8307149,0.1650509,0.05427131,0.525693
4.491208553,-0.8309139,0.1648279,0.05388523,0.5254883
4.525855064,-0.8311381,0.1648055,0.05380231,0.525149
4.558027744,-0.8312645,0.1646018,0.05367453,0.5250261
4.592674255,-0.8312263,0.1647599,0.05370652,0.5250335
4.624845982,-0.8312438,0.1649199,0.05364243,0.5249623
4.659493446,-0.8313013,0.1648741,0.05360782,0.524889
4.691665173,-0.8313531,0.1647917,0.0535922,0.5248345
4.726311684,-0.8313953,0.1647195,0.05353849,0.5247959
4.758484363,-0.8313641,0.1646344,0.0534399,0.5248819
4.793130875,-0.8313044,0.1645588,0.05338984,0.5250055
4.825302601,-0.8313505,0.1645781,0.05338298,0.5249271
4.857474327,-0.8314401,0.1646782,0.05335895,0.5247561
4.892121792,-0.8315781,0.1646727,0.05325297,0.52455
4.924293518,-0.8316842,0.1645822,0.05316196,0.5244192
4.958940029,-0.8316932,0.1642869,0.05310135,0.5245038
4.991112709,-0.8316324,0.1645519,0.053251,0.5245019
5.025759220,-0.8317344,0.1644967,0.05250093,0.5244333
5.057930946,-0.8323748,0.1613274,0.04838848,0.524797
5.092578411,-0.8329701,0.1525223,0.03848458,0.527299
5.124750137,-0.8341495,0.1314646,0.02300104,0.5319871
5.191569328,-0.8376705,0.008545051,-0.07464383,0.5378578
5.226215839,-0.8333325,-0.06456529,-0.1589963,0.5222413
5.258387566,-0.8218467,-0.1383378,-0.2570402,0.4857863
5.293035030,-0.8045408,-0.183561,-0.3529295,0.437136
5.325206757,-0.790437,-0.1909873,-0.4239163,0.3945321
5.357378483,-0.7736738,-0.1954454,-0.4926871,0.3422236
5.392025948,-0.7506217,-0.2056052,-0.5637494,0.2703844
5.424197674,-0.7290916,-0.2047395,-0.6157278,0.2097953
5.458844185,-0.7105308,-0.1859102,-0.6564212,0.1622407
5.491016388,-0.6956536,-0.162802,-0.6851885,0.129251
5.525663376,-0.6825767,-0.1327635,-0.7082589,0.1070504
5.557835102,-0.6743807,-0.1089821,-0.7230986,0.08420011
5.592482567,-0.6687516,-0.09388684,-0.7335873,0.04933306
5.624654293,-0.6664303,-0.08453861,-0.7383798,0.01210953
5.659300804,-0.6690735,-0.07427078,-0.7367057,-0.02677464
5.691472530,-0.6754533,-0.06277823,-0.7298037,-0.06193608
5.726119995,-0.6918807,-0.05432387,-0.7101017,-0.1036012
5.758291721,-0.7103495,-0.04465957,-0.6860811,-0.13903
5.792938232,-0.7397337,-0.03570299,-0.6459637,-0.1757207
5.825110912,-0.7748874,-0.03170654,-0.5931313,-0.2082476
5.859757423,-0.8199077,-0.02303262,-0.5215228,-0.2277332
5.891929150,-0.7818357,0.02412381,-0.5826007,-0.2129546
5.924101830,-0.8047301,0.05355848,-0.5377868,-0.2386495
5.958748341,-0.8055269,0.07460254,-0.5373505,-0.2311773
5.990920544,-0.8129105,0.09592218,-0.5217332,-0.2332326
6.025567532,-0.814847,0.1015954,-0.5195754,-0.228849
6.057739258,-0.8181369,0.09363165,-0.5149636,-0.230923
6.092385769,-0.8083444,0.1029754,-0.5285218,-0.2307981
6.124558449,-0.8019316,0.1096699,-0.5376028,-0.2291051
6.159204960,-0.8012636,0.1154759,-0.5403164,-0.2220987
6.191377163,-0.803899,0.1172418,-0.5395015,-0.213463
6.226024151,-0.8045406,0.1273766,-0.5444839,-0.1914537
6.258195877,-0.8056911,0.1324018,-0.5486081,-0.1702597
6.292842388,-0.8053358,0.1405231,-0.5556481,-0.139894
6.325014591,-0.8018804,0.1588598,-0.5654096,-0.09322534
6.359661579,-0.8007022,0.1745688,-0.5686921,-0.04023395
6.391833305,-0.8038406,0.1710744,-0.5667036,0.006966715
6.426480770,-0.8125775,0.1614284,-0.5530361,0.06661348
6.458652496,-0.8236061,0.1422387,-0.5314613,0.1249706
6.490824699,-0.8374151,0.1133492,-0.4987241,0.1838201
6.525471210,-0.8491307,0.06753865,-0.462348,0.2393275
6.557643413,-0.8572046,0.04004963,-0.4140524,0.2979669
6.592289925,-0.8640717,0.029512,-0.3447122,0.3609849
6.624462128,-0.8665493,0.02802246,-0.279586,0.4083703
6.659109116,-0.8660951,0.03736794,-0.2144104,0.4462495
6.691281319,-0.8652207,0.04241185,-0.1651984,0.4679013
6.725927830,-0.8640534,0.04803896,-0.1239391,0.4820483
6.758100033,-0.8609444,0.06411775,-0.08578935,0.4938941
6.792746544,-0.8575068,0.08588187,-0.04986284,0.5014455
6.824918747,-0.8544472,0.09997502,-0.02300566,0.5059875
6.859565735,-0.8521724,0.1126986,0.001937866,0.5076663
6.891737461,-0.8493473,0.1199413,0.02423638,0.5101604
6.926384449,-0.8469354,0.1284784,0.0461858,0.5105765
6.958556652,-0.8478604,0.1258761,0.05390937,0.5089297
6.990728855,-0.8489036,0.117376,0.05356314,0.5092584
7.025375366,-0.8506067,0.1067261,0.04692198,0.509415
7.057547569,-0.8516764,0.09996034,0.03938755,0.5096387
7.092194080,-0.8510461,0.1036304,0.03691885,0.5101432
7.124366283,-0.8500788,0.1114679,0.038353,0.5099977
7.159013271,-0.8494982,0.1182531,0.04102106,0.5092289
7.191185474,-0.8497711,0.1180149,0.04152278,0.5087879
7.225831986,-0.84953,0.1181826,0.04280176,0.5090456
7.258004189,-0.8492069,0.1207539,0.04435703,0.5088482
7.292650700,-0.8491611,0.1232965,0.04515938,0.5082436
7.324822903,-0.8492513,0.1284331,0.04664178,0.5066848
7.359469891,-0.8497156,0.1332433,0.04788961,0.5045434
7.391642094,-0.850332,0.1345241,0.04777624,0.5031739
7.426288605,-0.8508348,0.1346412,0.04714162,0.5023515
7.458460808,-0.8510637,0.1370917,0.04765078,0.5012522
7.493107319,-0.8513355,0.1403942,0.04851887,0.499791
7.525279522,-0.8516402,0.1423347,0.04895813,0.4986789
7.557451725,-0.8520476,0.1431623,0.0492751,0.4977138
7.592098236,-0.8524995,0.1434471,0.0495822,0.4968268
7.624270439,-0.8529199,0.1438522,0.04967099,0.4959787
7.658917427,-0.853244,0.1445406,0.04983004,0.4952042
7.691089630,-0.8534076,0.1460896,0.05023591,0.4944262
7.725736141,-0.8534606,0.1490784,0.05144199,0.4933173
7.757908344,-0.8535921,0.1518603,0.05261625,0.492116
7.792554855,-0.8539834,0.1532668,0.05323576,0.490933
7.824727058,-0.8543356,0.1534901,0.05334698,0.4902379
7.859374046,-0.8546047,0.1539451,0.05347839,0.4896117
7.891546249,-0.8547409,0.1549076,0.05381645,0.489033
7.926192760,-0.8546467,0.1567714,0.05457509,0.4885192
7.958364964,-0.8545629,0.1591096,0.05528091,0.48783
7.993011475,-0.8545738,0.1616043,0.0559816,0.4869101
8.025183678,-0.8547764,0.163396,0.0562476,0.4859247
8.059830666,-0.8552055,0.1637295,0.05595789,0.4850903
8.092002392,-0.855634,0.1628928,0.05534895,0.484686
8.124174595,-0.8557339,0.1628904,0.05554662,0.4844879
8.158821583,-0.8556218,0.1643941,0.05636733,0.4840828
8.190993786,-0.8555722,0.1660323,0.05707283,0.4835287
8.225640297,-0.8553319,0.1683525,0.05830228,0.4830046
8.257812500,-0.8554922,0.1697984,0.05913562,0.4821124
8.292459011,-0.8558306,0.1702466,0.06000555,0.4812454
8.324631214,-0.8562111,0.1696526,0.06057336,0.4807071
8.359278202,-0.856696,0.1688643,0.06032802,0.4801511
8.391450405,-0.8568441,0.1698512,0.06087597,0.479469
8.426096916,-0.8569008,0.1724191,0.06196713,0.47831
8.458269119,-0.8572676,0.173978,0.06241145,0.477029
8.492915630,-0.8578172,0.1737918,0.06267343,0.4760734
8.525087833,-0.8587662,0.171603,0.06146909,0.4753128
8.559734821,-0.8594531,0.1694136,0.06097201,0.4749207
8.591907024,-0.8597537,0.1674871,0.06157275,0.4749821
8.624078751,-0.8599846,0.165011,0.06235918,0.4753281
8.658725738,-0.8605702,0.1608968,0.06188326,0.4757409
8.690897942,-0.8610967,0.1568184,0.06118602,0.4762397
8.725544453,-0.861743,0.1524983,0.05955425,0.4766805
8.757716656,-0.8628939,0.1471584,0.05612242,0.4766933
8.792363167,-0.8641963,0.140066,0.0521714,0.4769194
8.824535370,-0.8648752,0.1330538,0.04895454,0.4780364
8.859182358,-0.8667479,0.1235381,0.04183054,0.4778748
8.891354561,-0.8692415,0.1093863,0.03472966,0.477363
8.926001072,-0.8705314,0.09717227,0.02788813,0.4781031
8.958173275,-0.8721703,0.08176847,0.01751775,0.4784911
8.992819786,-0.8727925,0.06482452,0.007956962,0.4802036
9.024991989,-0.8726503,0.05695831,0.003968228,0.4815072
9.059638977,-0.8731441,0.04405798,-0.001650133,0.4819784
9.091811180,-0.8728505,0.03568205,-0.005224406,0.4831764
9.126457691,-0.8723864,0.03156091,-0.006397005,0.4842856
9.158629894,-0.8717859,0.03202983,-0.005437453,0.485347
9.190802097,-0.8714262,0.03415791,-0.00391997,0.4858621
9.225448608,-0.8708933,0.03510867,-0.003826418,0.4867496
9.257620812,-0.8707451,0.03361656,-0.006286087,0.4870946
9.292267323,-0.8706429,0.03141011,-0.01028436,0.4873565
9.324439526,-0.870322,0.02473528,-0.0144609,0.4882072
9.359086514,-0.8700123,0.02144558,-0.01774195,0.4888062
9.391258717,-0.8704193,0.02424494,-0.01747035,0.4879598
9.425905228,-0.8711956,0.02299656,-0.01905702,0.4865736
9.458077431,-0.8710151,0.01472318,-0.02394004,0.4870014
9.492723942,-0.8703058,0.006694324,-0.03010399,0.488103
9.524896145,-0.8705305,0.006835438,-0.03006191,0.4877025
9.559543133,-0.8711726,0.002173332,-0.03120269,0.4865262
9.591715336,-0.8709224,-0.005883571,-0.03266412,0.4868474
9.626361847,-0.870402,-0.008533452,-0.03106949,0.4878421
9.658534050,-0.8703189,-0.008281806,-0.03068689,0.4880187
9.693180561,-0.8708298,-0.009161178,-0.0308965,0.4870777
9.725352764,-0.8705307,-0.008839061,-0.02929638,0.4877166
9.757524967,-0.8706439,-0.005456639,-0.02726716,0.4876818
9.792171955,-0.8712168,-0.001462332,-0.02503114,0.4868062
9.824343681,-0.8709908,0.0004075662,-0.02299958,0.4873124
9.858990669,-0.870729,0.007251902,-0.01878464,0.4879071
9.891162872,-0.8717876,0.0184768,-0.01255968,0.4859165
9.925809383,-0.8761959,0.02215451,-0.01034273,0.4778184
9.957981586,-0.8833688,0.01274139,-0.02432108,0.4642557
9.992628098,-0.8956807,-0.001262888,-0.05147829,0.4378721
10.024800301,-0.9115336,-0.01891554,-0.0962777,0.3951036
10.059447289,-0.9299395,-0.02702481,-0.1468701,0.3309664
10.091619492,-0.9469834,-0.03294983,-0.1830879,0.2554273
10.126266480,-0.9620686,-0.03489011,-0.2022476,0.1700889
10.158438206,-0.9732433,-0.04640201,-0.1957646,0.09459508
10.193084717,-0.9834527,-0.05298144,-0.1591604,0.03618349
10.225257397,-0.9922859,-0.02963698,-0.1054007,-0.002932537
10.257429123,-0.9969438,-0.002812415,-0.04623955,-0.024173
10.292076111,-0.9965777,-0.004374556,0.04161191,-0.04134959
10.324247837,-0.9884135,0.0904986,0.08919987,-0.05932685
10.358894825,-0.9810846,0.1278437,0.1189843,-0.05999335
10.391067028,-0.9783424,0.1240493,0.1470599,-0.04958699
10.425714016,-0.9705287,0.158655,0.1638221,-0.05188949
10.457885742,-0.9659091,0.1731737,0.1743933,-0.0569665
10.492532253,-0.9608891,0.1883371,0.1831595,-0.06558706
10.524704933,-0.9546093,0.2073738,0.1916194,-0.07501221
10.559351444,-0.9498467,0.2172317,0.201213,-0.08211454
10.591523647,-0.9444349,0.2307088,0.2094543,-0.08702131
10.626170635,-0.9368115,0.2536253,0.2134768,-0.09546595
10.658342361,-0.9329658,0.2611133,0.2182502,-0.1019271
10.692988872,-0.9282502,0.2694152,0.224571,-0.1093739
10.725161552,-0.9227904,0.2825049,0.2254591,-0.120186
10.759808063,-0.9175604,0.2922554,0.2272204,-0.1329222
10.791980267,-0.9119537,0.3056097,0.2246249,-0.1453087
10.824152470,-0.9089129,0.3113886,0.2214489,-0.1565333
10.858798981,-0.9061895,0.315338,0.2179213,-0.1688804
10.890971184,-0.9054301,0.3138431,0.2142369,-0.1800811
10.925618172,-0.9042137,0.3138096,0.2078118,-0.1932951
10.957789898,-0.9059609,0.3079179,0.1991903,-0.2034018
10.992436886,-0.9085234,0.3062415,0.1833431,-0.2093189
11.024609089,-0.9074253,0.3218558,0.1614737,-0.2086671
11.059255600,-0.9068282,0.34252,0.135845,-0.1962558
11.091427803,-0.9088596,0.3567265,0.1113818,-0.1759038
11.126074791,-0.9162048,0.3583372,0.08890495,-0.1445232
11.158246517,-0.925643,0.3512163,0.07236866,-0.1059372
11.192893982,-0.9313906,0.3496405,0.06046579,-0.05687491
11.225065708,-0.9367423,0.3404547,0.05633206,-0.007666559
11.259712219,-0.938956,0.3302237,0.05784214,0.05094808
11.291884899,-0.9498945,0.2860483,0.06087414,0.09379972
11.324056625,-0.9732387,0.1618141,0.0583479,0.1408739
11.358703137,-0.9664601,0.1509099,0.06246696,0.1894901
11.390875816,-0.9579543,0.1474963,0.07878613,0.2258066
11.425522328,-0.9505199,0.1028026,0.09966999,0.2695125
11.457694054,-0.9345655,0.09599973,0.1352575,0.3093613
11.492341518,-0.9179581,0.09688293,0.1743723,0.3379177
11.524513245,-0.903838,0.1065827,0.2110908,0.3518313
11.559159756,-0.8904698,0.1305438,0.2467081,0.3546612
11.591332436,-0.8850423,0.1346448,0.2643427,0.3540077
11.625978947,-0.8863903,0.1070852,0.2649362,0.3595572
11.658150673,-0.8860989,0.1059635,0.2678031,0.3584827
11.692798138,-0.8853738,0.1100153,0.2728687,0.3552187
11.724969864,-0.8836333,0.123128,0.2812529,0.348649
11.759616375,-0.8816251,0.1437217,0.2913041,0.3374182
11.791789055,-0.8797143,0.1580763,0.300125,0.3281272
11.826435566,-0.8768026,0.1848013,0.3080742,0.3142986
11.858607292,-0.8745542,0.2080269,0.3129044,0.3009955
11.890779972,-0.8744781,0.222031,0.3140861,0.2897722
11.925426483,-0.8724738,0.2412207,0.3158544,0.2783266
11.957598686,-0.8689864,0.2564212,0.3195378,0.2713561
11.992245674,-0.8667744,0.2692858,0.320792,0.2643999
12.024417400,-0.8649505,0.2793624,0.3225121,0.2577418
12.059064865,-0.8601404,0.2973763,0.3266225,0.2483369
12.091236591,-0.8549475,0.3138387,0.3295379,0.2420794
12.125883102,-0.8558741,0.3162534,0.3254859,0.2411431
12.158055782,-0.8751696,0.2711112,0.3077388,0.250003
12.192702293,-0.9216354,0.1672892,0.246563,0.2417362
12.224874020,-0.9657305,0.03882282,0.1643767,0.1883211
12.259521484,-0.98868,-0.01283275,0.1129422,0.07885846
