Time (s),W,X,Y,Z
0.002264500,0.5351229,-0.04303084,0.1270124,0.8320382
0.035042286,0.5351616,-0.04289391,0.1267862,0.8320547
0.070341110,0.5352423,-0.04293337,0.1268148,0.8319964
0.103118897,0.5353265,-0.0432414,0.1273762,0.8318405
0.135896683,0.5354432,-0.04350442,0.1278895,0.8316729
0.168674469,0.5355541,-0.04355185,0.1280296,0.8315775
0.203973770,0.5356377,-0.04353178,0.1280498,0.8315215
0.236751080,0.5356386,-0.04365873,0.128384,0.8314628
0.269528866,0.5356213,-0.0436901,0.1285585,0.8314453
0.302306652,0.5356343,-0.04369862,0.1285243,0.8314419
0.335084438,0.535683,-0.04372782,0.1285024,0.8314124
0.370383740,0.5357421,-0.04393028,0.1288646,0.8313075
0.403161526,0.5358326,-0.04408801,0.1291474,0.831197
0.435939789,0.5359101,-0.0441894,0.1292774,0.8311213
0.468717575,0.5359167,-0.04415816,0.1292361,0.8311251
0.504016876,0.5359245,-0.04408678,0.1290548,0.8311521
0.536794186,0.5359246,-0.0440263,0.1288751,0.8311831
0.569571972,0.5358931,-0.04402402,0.1288039,0.8312146
0.602349758,0.535829,-0.04399125,0.128692,0.831275
0.635127544,0.5357613,-0.04383407,0.1283124,0.8313856
0.670426845,0.53567,-0.0436568,0.1278667,0.8315225
0.703204632,0.5356076,-0.04345216,0.1274975,0.8316299
0.735982418,0.53554,-0.04346572,0.1273807,0.8316907
0.768760204,0.5354446,-0.04339606,0.1272306,0.8317788
0.801537991,0.5353262,-0.04324348,0.1270072,0.831897
0.836836815,0.5352578,-0.04309358,0.1266254,0.8320071
0.869614601,0.5352078,-0.04309997,0.1265436,0.8320514
0.902392387,0.535126,-0.04322272,0.1267331,0.8320687
0.935170174,0.5349861,-0.04323025,0.1266533,0.8321705
0.970469952,0.5348125,-0.04295256,0.1260916,0.8323817
1.003247738,0.5346799,-0.04268274,0.1254783,0.8325735
1.036025524,0.5345702,-0.04259774,0.1252187,0.8326874
1.068803310,0.5344896,-0.04262921,0.1252375,0.8327346
1.101581097,0.5344045,-0.04257721,0.125134,0.8328074
1.136879921,0.5342836,-0.04248641,0.1248493,0.8329324
1.169657707,0.5341122,-0.04238751,0.1245971,0.8330851
1.202435494,0.5338885,-0.04229286,0.1243794,0.8332657
1.235213280,0.5337513,-0.04214535,0.1240939,0.8334036
1.270512104,0.5335895,-0.04210272,0.123972,0.8335275
1.303289890,0.533405,-0.04203181,0.1238583,0.8336661
1.336067677,0.5333281,-0.0419219,0.1236411,0.8337531
1.368845463,0.5333381,-0.04196052,0.1235668,0.8337559
1.401623249,0.5333747,-0.04219642,0.1241984,0.8336267
1.436922550,0.5334083,-0.04252477,0.1248182,0.8334959
1.469700813,0.5333813,-0.04242505,0.1246472,0.8335439
1.502478600,0.5334141,-0.04220729,0.1242193,0.8335978
1.535256386,0.5334559,-0.0421516,0.1240446,0.8335999
1.570555210,0.5335417,-0.0422814,0.1243103,0.8334987
1.603332996,0.5336115,-0.04245532,0.1247394,0.8333812
1.636110783,0.5336934,-0.0425627,0.1249387,0.8332933
1.668888569,0.53376,-0.04257671,0.1249833,0.8332434
1.701666355,0.53379,-0.04260964,0.125115,0.8332027
1.736965656,0.5338821,-0.0426584,0.1251997,0.8331283
1.769743442,0.5339504,-0.04267819,0.1252411,0.8330774
1.802521229,0.5340017,-0.04269448,0.1253488,0.8330275
1.835299015,0.5341051,-0.04272293,0.1253821,0.8329546
1.870597839,0.5342215,-0.04287352,0.1255684,0.8328442
1.903375626,0.5342864,-0.04309491,0.126112,0.8327091
1.936153412,0.5343498,-0.04329648,0.1264732,0.8326032
1.968931198,0.5343621,-0.04320695,0.1263774,0.8326143
2.001708984,0.5343854,-0.04303741,0.1261227,0.8326469
2.037008762,0.534439,-0.04297972,0.125953,0.8326411
2.069786549,0.5344933,-0.0430759,0.1261213,0.8325759
2.102564335,0.5345277,-0.04317206,0.12636,0.8325127
2.135342121,0.5345813,-0.04319569,0.1264011,0.8324706
2.170640945,0.5346156,-0.04323822,0.1265256,0.8324276
2.203418732,0.5346566,-0.04318556,0.126542,0.8324013
2.236196518,0.5347475,-0.04322192,0.1265425,0.832341
2.268974304,0.5347524,-0.0432701,0.1267092,0.8323101
2.301752091,0.534762,-0.04319303,0.1265861,0.8323267
2.337050915,0.5347967,-0.04315839,0.1264708,0.8323237
2.369828701,0.5348511,-0.04326482,0.1266283,0.8322592
2.402606487,0.5348924,-0.0434549,0.1271104,0.8321493
2.435384274,0.5349564,-0.04354189,0.1272778,0.8320779
2.468162060,0.5349928,-0.0435275,0.1272758,0.8320556
2.503461361,0.5349777,-0.04345584,0.1271282,0.8320917
2.536239147,0.5349518,-0.04333037,0.1269392,0.8321438
2.569016457,0.5349789,-0.04324701,0.1268057,0.8321511
2.601794243,0.5350061,-0.04324431,0.1268323,0.8321297
2.637093544,0.5349896,-0.04337175,0.1271494,0.8320853
2.669871807,0.5350083,-0.0434021,0.1272181,0.8320611
2.702649593,0.5350158,-0.04339226,0.1272197,0.8320565
2.735427380,0.5350485,-0.0433566,0.1271429,0.8320491
2.768205166,0.5350326,-0.04351316,0.1273607,0.8320178
2.803504467,0.5349711,-0.04347397,0.1273137,0.8320667
2.836282253,0.5349103,-0.04336517,0.1270441,0.8321527
2.869059563,0.5348613,-0.04330987,0.1267781,0.8322276
2.901837349,0.5348187,-0.04338588,0.1270067,0.8322161
2.937136650,0.5348371,-0.04343951,0.127136,0.8321818
2.969914436,0.5348213,-0.04342766,0.1270155,0.832211
3.002692223,0.5347316,-0.04334872,0.1268954,0.832291
3.035470009,0.5345926,-0.04326406,0.1267243,0.8324108
3.068247795,0.5344259,-0.04332506,0.1266088,0.8325322
3.103546619,0.534017,-0.04582401,0.1299062,0.8321527
3.136324406,0.5331966,-0.05215298,0.1361515,0.8313073
3.169102192,0.5303533,-0.06252907,0.1488065,0.8302408
3.201879978,0.5271168,-0.078178,0.1771023,0.825408
3.237179279,0.5264946,-0.09262874,0.2234817,0.8129618
3.269956589,0.530487,-0.09324564,0.2598804,0.7993614
3.302734375,0.5417537,-0.07428681,0.2725497,0.7895117
3.335513115,0.5543956,-0.0534484,0.2948197,0.7742724
3.368289948,0.5692742,-0.03819356,0.3226589,0.7529854
3.403589726,0.5895655,-0.01394635,0.3452559,0.7277665
3.436367512,0.6108891,0.008039166,0.3641287,0.7005624
3.469145298,0.6319652,0.03049194,0.3795903,0.6724798
3.501923084,0.6541358,0.04768903,0.3989844,0.638178
3.537222386,0.6766986,0.06170209,0.4166622,0.6010758
3.569999695,0.7011601,0.06331812,0.4333861,0.5596154
3.602777481,0.732519,0.04592179,0.4426377,0.5118657
3.635555267,0.7718843,0.01331794,0.4361143,0.4587473
3.668333054,0.8163063,-0.03209299,0.399808,0.4115764
3.703632355,0.8575404,-0.05903197,0.331858,0.3842365
3.736410141,0.8540903,-0.00314275,0.3168212,0.4083771
3.769187927,0.8638988,0.02001518,0.3184551,0.385347
3.801965713,0.8741763,0.02355691,0.3165881,0.3628504
3.837264538,0.8785527,0.003861545,0.3190835,0.3506333
3.870042324,0.8751726,-0.01464916,0.3192632,0.3585487
3.902820110,0.8723438,-0.03365743,0.3222184,0.3615059
3.935597897,0.8705369,-0.04333603,0.3253236,0.3620494
3.968375683,0.8673819,-0.04489969,0.3247201,0.369888
4.003674507,0.864298,-0.03973208,0.320367,0.3813172
4.036452293,0.8615556,-0.03209182,0.3137371,0.393559
4.069230080,0.8575678,-0.02056045,0.3058015,0.4089839
4.102007866,0.8506758,-0.003572206,0.2971748,0.4297122
4.137307644,0.841522,0.01951703,0.2890993,0.4522268
4.170085430,0.8317265,0.04004191,0.2804386,0.4739297
4.202863216,0.8190544,0.06581484,0.2645715,0.5014458
4.235641003,0.80463,0.0874285,0.2516739,0.5274604
4.268418789,0.7834128,0.1002432,0.2481118,0.5579283
4.303717613,0.7604018,0.111966,0.2462934,0.5875542
4.336495400,0.7361365,0.1172942,0.2408697,0.6188332
4.369273186,0.7095522,0.1191187,0.2367008,0.6503435
4.402050972,0.6842487,0.1137686,0.2317221,0.6795534
4.434828758,0.6563339,0.1022109,0.2217686,0.711495
4.470128059,0.6282207,0.09019139,0.2073548,0.7421832
4.502905846,0.6023418,0.07123435,0.1918991,0.7693585
4.535683632,0.5785254,0.05198884,0.1743662,0.7929878
4.568460941,0.5554946,0.02689078,0.1631856,0.8128349
4.603760242,0.5347788,0.002763868,0.1570102,0.8282387
4.636538029,0.5195345,-0.01171398,0.1466207,0.8396886
4.669315815,0.5071209,-0.02970384,0.1422849,0.8475428
4.702093601,0.4969477,-0.04810801,0.1390557,0.8532408
4.734871387,0.4875411,-0.06493058,0.1550159,0.8548014
4.770170212,0.48107,-0.07971195,0.2084766,0.8458031
4.802947998,0.4797345,-0.08414318,0.221173,0.8429027
4.835725784,0.4810287,-0.0898326,0.2216035,0.8414637
4.868503571,0.4839696,-0.08770251,0.2137419,0.8420355
4.903802872,0.4883245,-0.0835323,0.2039978,0.8423622
4.936580658,0.4898023,-0.08442119,0.2055856,0.8410286
4.969357967,0.4901731,-0.0872563,0.2140813,0.8383994
5.002135754,0.491051,-0.08885768,0.219649,0.8362747
5.034913540,0.4927131,-0.09112092,0.2218674,0.8344659
5.070213318,0.4957422,-0.09050383,0.2191639,0.8334528
5.102991104,0.4974538,-0.09153138,0.2172134,0.8328311
5.135768890,0.4991042,-0.0948356,0.2184035,0.831161
5.168546677,0.5019685,-0.09582005,0.2141008,0.8304424
5.203845978,0.5048942,-0.09991629,0.2095683,0.8293415
5.236623764,0.5082682,-0.1064023,0.2064811,0.8272455
5.269401074,0.5125936,-0.1115972,0.197532,0.8260766
5.302178860,0.5174015,-0.1197331,0.1892895,0.8238671
5.334956646,0.5223971,-0.1355823,0.1833586,0.819589
5.370255947,0.5279716,-0.150573,0.1707986,0.8161062
5.403033733,0.5313934,-0.1744099,0.1665494,0.8099945
5.435811520,0.5349046,-0.1988472,0.1554006,0.8042482
5.468589306,0.537917,-0.2199093,0.1386556,0.7998046
5.503888130,0.5336455,-0.2590166,0.1371075,0.7911776
5.536665917,0.5335647,-0.2834564,0.1231848,0.7851205
5.569443703,0.5320712,-0.3067039,0.1050624,0.7800144
5.602221489,0.522384,-0.3358008,0.09477697,0.775885
5.634999275,0.5124639,-0.3608142,0.08357991,0.7725515
5.670298099,0.4977381,-0.3900547,0.06498497,0.7697523
5.703075886,0.4840443,-0.4130394,0.04606229,0.7678577
5.735853672,0.4710364,-0.4375296,0.0344138,0.7629783
5.768631458,0.4582971,-0.4609394,0.0186106,0.7574825
5.803930759,0.4451691,-0.4842343,-0.005971642,0.750955
5.836708546,0.4258393,-0.5109043,-0.02423839,0.7440952
5.869486332,0.4061327,-0.5375724,-0.0381292,0.7356941
5.902264118,0.3893583,-0.563181,-0.06027019,0.7240321
5.935041904,0.3683383,-0.589442,-0.08456486,0.7115909
5.970340729,0.3461784,-0.6179547,-0.1027079,0.6959678
6.003118515,0.3343207,-0.6391713,-0.130627,0.6776828
6.035896301,0.3166638,-0.6613318,-0.1503863,0.6605875
6.068674564,0.2991113,-0.6811213,-0.1632345,0.6454365
6.101452351,0.2850627,-0.698509,-0.1735324,0.6303479
6.136751652,0.2726136,-0.7135286,-0.1862931,0.6152083
6.169529438,0.2590795,-0.7250112,-0.1950025,0.6048457
6.202307224,0.2492672,-0.733261,-0.2067837,0.5950315
6.235085011,0.239833,-0.7414883,-0.2169827,0.5849969
6.270383835,0.230394,-0.7496761,-0.2294469,0.573486
6.303161621,0.2234281,-0.7554621,-0.2424316,0.5632153
6.335939407,0.212091,-0.7618397,-0.2545365,0.5535851
6.368717194,0.2007551,-0.7668121,-0.268185,0.5444273
6.401494980,0.1946588,-0.7688753,-0.2879073,0.5335501
6.436793804,0.1860139,-0.7700665,-0.310414,0.5221755
6.469571591,0.1733916,-0.7708898,-0.3279301,0.5145423
6.502349377,0.1662802,-0.7691048,-0.3522099,0.5033931
6.535127163,0.1680469,-0.7650585,-0.3826358,0.4864803
6.570426464,0.1732541,-0.7584412,-0.4087875,0.473572
6.603204250,0.187334,-0.7490235,-0.4207817,0.4726947
6.635982037,0.2103504,-0.7372195,-0.4226675,0.4798333
6.668759823,0.2210221,-0.7295803,-0.4182796,0.4904403
6.701537132,0.2187319,-0.7209163,-0.3991551,0.519364
6.736836433,0.2102677,-0.7115607,-0.3661989,0.558565
6.769614220,0.1978723,-0.7024617,-0.3294165,0.5962435
6.802392006,0.1663375,-0.6993376,-0.2712203,0.6374369
6.835169792,0.1402182,-0.6930699,-0.2096078,0.6728188
6.870468616,0.1285563,-0.6823546,-0.164168,0.6982421
6.903246403,0.1136605,-0.6746507,-0.1204764,0.7169663
6.936024189,0.09392488,-0.6670613,-0.0726665,0.7331812
6.968801975,0.09260542,-0.6590196,-0.04002352,0.7430633
7.001579762,0.1014115,-0.6515869,-0.0252822,0.7490919
7.036879063,0.1053215,-0.6447359,-0.01151206,0.7547968
7.069656849,0.1010557,-0.6403918,0.005998089,0.7591296
7.102434158,0.09220237,-0.6356783,0.02700309,0.7637476
7.135211945,0.08431819,-0.6324495,0.04409117,0.7665388
7.170511723,0.07857864,-0.6296831,0.05534544,0.7686931
7.236067295,0.05237214,-0.6237342,0.08352466,0.7732168
7.268845081,0.04240106,-0.6217554,0.09928571,0.7735582
7.301622868,0.03891541,-0.6208977,0.1052617,0.7736403
7.336922169,0.03601149,-0.6214899,0.1090784,0.7727762
7.369699955,0.03546919,-0.6217502,0.1084583,0.7726792
7.402477264,0.03628588,-0.6235332,0.1053457,0.7716343
7.435255051,0.03966343,-0.6254231,0.09837382,0.7708586
7.470554352,0.04399795,-0.6285998,0.08836763,0.7692498
7.503332138,0.04928827,-0.6313867,0.07798086,0.7677683
7.536109924,0.05439944,-0.6325245,0.0672968,0.7674974
7.568887710,0.05714161,-0.6328391,0.06109868,0.7675572
7.601665497,0.05495703,-0.6319155,0.06371119,0.768265
7.636964321,0.05263492,-0.6306503,0.07211719,0.7687241
7.669742107,0.05360224,-0.6299302,0.07737772,0.7687361
7.702519894,0.05531594,-0.6289622,0.08180191,0.7689492
7.735297680,0.05626973,-0.6286622,0.0844093,0.7688435
7.768075466,0.05653423,-0.6280589,0.08527231,0.7692218
7.803374290,0.05673941,-0.6270942,0.08573564,0.7699419
7.836152077,0.05771176,-0.6265212,0.0827338,0.7706642
7.868929863,0.05795696,-0.6254005,0.0813029,0.7717077
7.901707649,0.05801531,-0.6243989,0.08037303,0.7726113
7.937006950,0.06033696,-0.6237215,0.07707877,0.7733159
7.969784737,0.06201909,-0.6228787,0.07541361,0.774026
8.002562523,0.06263046,-0.6225782,0.07544218,0.7742157
8.035340309,0.06355315,-0.6220547,0.07546943,0.7745585
8.068118095,0.06250075,-0.6214252,0.07712401,0.7749865
8.103416920,0.0622474,-0.6213948,0.07794979,0.7749486
8.136194706,0.06239719,-0.621103,0.07746186,0.7752194
8.168972492,0.06159076,-0.620867,0.07794119,0.7754248
8.201750279,0.06237847,-0.6208784,0.07706142,0.7754407
8.237049103,0.06402,-0.620581,0.07443812,0.7758012
8.269826889,0.06435563,-0.6203781,0.07352524,0.7760226
8.302604675,0.06459654,-0.6202141,0.0728854,0.7761941
8.335382462,0.06458262,-0.6199101,0.07303539,0.7764239
8.368160248,0.06495277,-0.6199122,0.07317494,0.7763782
8.403459549,0.06657214,-0.620038,0.07175092,0.7762735
8.436237335,0.0679697,-0.6204414,0.06981193,0.7760068
8.469015122,0.06854983,-0.6207324,0.06848695,0.7758412
8.501792431,0.06900815,-0.6211205,0.06736552,0.775588
8.537091732,0.06951321,-0.6217102,0.06621378,0.7751694
8.569869518,0.06964941,-0.6217794,0.06584451,0.7751331
8.602647304,0.0702089,-0.6218968,0.06553638,0.7750148
8.635425091,0.07126892,-0.622115,0.06427698,0.7748483
8.668202877,0.07225805,-0.6222789,0.06297304,0.7747321
8.703501701,0.07278863,-0.6225955,0.06133748,0.7745593
8.736279488,0.07262294,-0.6226326,0.06102929,0.7745693
8.769057274,0.07312954,-0.6227497,0.06043306,0.7744743
8.801835060,0.07358874,-0.6229963,0.05907967,0.7743368
8.837134838,0.07404904,-0.6231621,0.05806761,0.7742361
8.869912624,0.07452112,-0.6232749,0.05677353,0.7741961
8.902690411,0.07476594,-0.623261,0.05568484,0.7742626
8.935468197,0.07525765,-0.6232353,0.054726,0.7743042
8.968245983,0.07547287,-0.623121,0.05368828,0.7744478
9.003544807,0.07613112,-0.6231192,0.05207588,0.7744948
9.036322594,0.07756344,-0.6233866,0.04878789,0.7743517
9.069100380,0.07850267,-0.6237132,0.044703,0.7742406
9.101878166,0.07879659,-0.6243285,0.03998296,0.7739729
9.137177467,0.07809646,-0.6254166,0.03379217,0.7734603
9.235510349,0.07667363,-0.6309315,0.007831072,0.7698136
9.268288136,0.07568698,-0.6344225,-0.006136613,0.7670525
9.303587437,0.07145534,-0.6395563,-0.02004622,0.7629467
9.336365223,0.06910348,-0.6438161,-0.03627221,0.7589715
9.369143009,0.06595256,-0.6486989,-0.05536132,0.753925
9.401920796,0.06014926,-0.6549488,-0.07323176,0.747455
9.437219620,0.05812586,-0.6621923,-0.09603418,0.7385985
9.469997406,0.05792775,-0.6696168,-0.1213638,0.7281182
9.502775192,0.058113,-0.6768462,-0.1459015,0.716828
9.535552979,0.06514779,-0.6843147,-0.1753542,0.702387
9.568330765,0.07280661,-0.6913588,-0.2071192,0.6858946
9.603629589,0.07280973,-0.6993281,-0.234682,0.6687233
9.636407375,0.07388795,-0.7075648,-0.2588096,0.6507979
9.669185162,0.07673389,-0.713891,-0.2848666,0.6324161
9.701962948,0.07416101,-0.7213398,-0.3070679,0.6136009
9.737262249,0.07127707,-0.7277555,-0.3269358,0.5958457
9.770040035,0.06647203,-0.7337494,-0.3408037,0.5810971
9.802817821,0.0638163,-0.7401128,-0.3532418,0.5656929
9.835595608,0.06441005,-0.7459703,-0.3655941,0.5498622
9.868373394,0.06598651,-0.7518607,-0.3750255,0.5351025
9.903672218,0.07452613,-0.7565662,-0.3843168,0.5205591
9.936450005,0.08016265,-0.7609244,-0.3902113,0.5088524
9.969227791,0.09056342,-0.7627122,-0.3902694,0.5043668
10.002005577,0.09915772,-0.7638623,-0.3859656,0.5043218
10.034783363,0.1000861,-0.7671653,-0.3785836,0.50472
10.070082188,0.1091083,-0.7691474,-0.3778713,0.5003486
10.102859974,0.1192308,-0.7728592,-0.3881586,0.484183
10.135637760,0.1223674,-0.7765002,-0.3945443,0.472267
10.168415546,0.1174878,-0.7806032,-0.3960168,0.4654607
10.203714848,0.1226168,-0.7805412,-0.3976886,0.4628089
10.236492634,0.1217579,-0.7783481,-0.3909455,0.4723755
10.302048206,0.1240451,-0.7746081,-0.361364,0.5006385
10.334825516,0.1302577,-0.7689006,-0.3511966,0.5148917
10.370124817,0.1372237,-0.7635955,-0.3451585,0.5249619
10.402902603,0.1511146,-0.756655,-0.3419601,0.5332246
10.435680390,0.1669651,-0.7500789,-0.3360825,0.5414615
10.468458176,0.1773795,-0.7441484,-0.3276263,0.5514238
10.503757000,0.1864605,-0.7383914,-0.3153994,0.563171
10.536534786,0.1960864,-0.7298069,-0.3065129,0.5758554
10.569312572,0.2039225,-0.7215652,-0.2957413,0.5890026
10.602090359,0.2103104,-0.7140201,-0.2813537,0.6028371
10.634868145,0.2232174,-0.7059996,-0.2671732,0.6139909
10.670167446,0.2352194,-0.6972272,-0.2498427,0.6266995
10.702945232,0.2513129,-0.6863903,-0.2335383,0.6385904
10.735722542,0.2699572,-0.6739792,-0.2181526,0.6495478
10.768500328,0.2869961,-0.6604462,-0.2015097,0.6614118
10.803799629,0.3078623,-0.6429156,-0.181913,0.6748449
10.836577415,0.3235185,-0.6258719,-0.1656745,0.6876043
10.869355202,0.3352018,-0.6103122,-0.1386541,0.7018271
10.902132988,0.3531921,-0.5892541,-0.1131676,0.7154408
10.934910774,0.3725863,-0.564428,-0.09091434,0.7286719
10.970209599,0.3916683,-0.5365757,-0.06874192,0.742014
11.002987385,0.4097401,-0.5078825,-0.04760636,0.754009
11.035765171,0.4226672,-0.4811599,-0.0246565,0.7654132
11.068542957,0.4367361,-0.4524255,-0.002055301,0.7753683
11.103842258,0.4549989,-0.4153943,0.01833872,0.7853119
11.136619568,0.4615609,-0.3870665,0.04078975,0.7950502
11.169397354,0.4686968,-0.359138,0.06873977,0.802026
11.202175140,0.4816214,-0.3261508,0.09026521,0.8063165
11.234952927,0.4862176,-0.2999865,0.1096738,0.8112951
11.270252228,0.4971685,-0.2656313,0.1322673,0.8132628
11.303030014,0.5001088,-0.2446231,0.1471758,0.8154861
11.335807800,0.5038597,-0.2215605,0.1661012,0.8161339
11.368585587,0.5066274,-0.1963722,0.1816034,0.8175662
11.403884411,0.5061029,-0.1752067,0.1907125,0.8206211
11.436662197,0.5062234,-0.1552394,0.1989136,0.8226176
11.469439983,0.5060948,-0.1393891,0.2092823,0.8229626
11.502217770,0.5085291,-0.1221897,0.2117105,0.8235741
11.534995556,0.5115437,-0.1068741,0.2073672,0.8249409
11.570294380,0.51447,-0.1000628,0.2127894,0.8225912
11.603072166,0.520427,-0.09100709,0.214322,0.819492
11.635849953,0.5275543,-0.0798128,0.2089184,0.8174945
11.668627739,0.5320703,-0.0715059,0.2067022,0.8158983
11.703927040,0.5359201,-0.07219569,0.2122593,0.8118812
11.736704826,0.538404,-0.06931856,0.2171749,0.809184
11.769482613,0.5382338,-0.07376117,0.2375693,0.8031513
11.802260399,0.5399196,-0.07151905,0.2442971,0.8001991
11.835037708,0.5431671,-0.06576758,0.2313088,0.8023516
11.870337009,0.5444871,-0.06829226,0.2278581,0.8022334
11.903114796,0.5446793,-0.07224118,0.2251558,0.80252
11.935892582,0.5449048,-0.07558396,0.2212841,0.8031356
11.968670368,0.5459097,-0.07172053,0.2074208,0.8065005
12.001448154,0.5463188,-0.06823128,0.1946712,0.8096982
12.036746979,0.5450144,-0.06722695,0.1849512,0.8129333
12.069524765,0.5414677,-0.06633531,0.1772611,0.8170792
12.102302551,0.5377725,-0.06981661,0.1812332,0.8183572
12.135080338,0.5349491,-0.07366251,0.1873828,0.8184857
12.170379639,0.5338489,-0.07555097,0.188944,0.818673
12.203157425,0.5337119,-0.07718982,0.1902732,0.8183014
12.235934734,0.5337143,-0.08051046,0.1952476,0.8168067
12.268712521,0.5334727,-0.08314686,0.1993966,0.8156974
12.301490307,0.5328553,-0.08435539,0.2011494,0.8155465
12.336789608,0.5322958,-0.08338027,0.1993074,0.8164638
12.369567394,0.5319448,-0.0821368,0.1968635,0.8174111
12.402345181,0.5315601,-0.08135307,0.1948381,0.8182244
12.435122967,0.5313303,-0.08163599,0.1952819,0.8182397
